1539435379.00
64.000000
-0.00
-0.00
-0.00
-0.00
-0.00
-0.00
-0.00
-0.00
-0.00
-0.01
-0.00
0.00
0.01
0.01
-0.00
-0.03
-0.05
-0.05
-0.00
0.13
0.36
0.66
1.01
1.38
1.73
2.06
2.40
2.76
3.23
3.80
4.46
5.15
5.79
6.34
6.79
7.18
7.58
8.17
8.98
10.00
11.10
12.16
13.08
13.88
14.70
15.70
17.29
19.52
22.30
25.35
28.32
30.96
33.29
35.59
38.25
42.05
47.14
53.37
60.18
66.86
72.84
78.01
82.83
87.98
94.75
103.50
114.09
125.67
137.05
147.24
155.88
164.51
171.57
179.77
190.46
204.78
222.76
242.70
260.95
272.54
272.65
258.11
229.22
188.74
141.21
90.99
40.93
-8.16
-56.87
-106.26
-156.97
-208.12
-258.02
-303.75
-341.73
-368.49
-381.73
-381.11
-368.60
-347.76
-322.33
-295.59
-269.33
-244.42
-221.27
-200.36
-182.10
-166.56
-153.15
-140.57
-127.61
-113.57
-98.68
-83.89
-70.47
-59.33
-50.66
-43.91
-38.08
-32.22
-25.75
-18.72
-11.62
-5.16
0.10
3.96
6.64
8.65
10.53
12.67
15.13
17.66
19.89
21.46
22.23
22.29
21.93
21.49
21.25
21.32
21.59
21.85
21.86
21.46
20.69
19.72
18.75
17.96
17.38
16.96
16.58
16.17
15.70
15.18
14.69
14.23
13.80
13.35
12.87
12.37
11.92
11.57
11.34
11.20
11.07
10.88
10.58
10.17
9.69
9.21
8.79
8.46
8.22
8.05
7.91
7.79
7.67
7.53
7.38
7.21
7.04
6.91
6.84
6.85
6.95
7.09
7.24
7.30
7.21
6.96
6.57
6.08
5.57
5.08
4.64
4.27
4.01
3.83
3.75
3.74
3.75
3.76
3.72
3.62
3.48
3.30
3.10
2.90
2.71
2.52
2.33
2.12
1.85
1.55
1.21
0.90
0.66
0.53
0.50
0.50
0.44
0.27
-0.02
-0.38
-0.71
-0.95
-1.05
-1.03
-0.93
-0.80
-0.68
-0.56
-0.45
-0.35
-0.28
-0.27
-0.34
-0.48
-0.64
-0.77
-0.82
-0.79
-0.68
-0.53
-0.34
-0.09
0.24
0.64
1.06
1.42
1.65
1.70
1.59
1.36
1.10
0.87
0.72
0.66
0.67
0.72
0.76
0.75
0.69
0.61
0.59
0.69
0.95
1.34
1.80
2.22
2.55
2.75
2.82
2.79
2.70
2.57
2.45
2.36
2.35
2.44
2.59
2.71
2.67
2.40
1.91
1.33
0.85
0.61
0.65
0.90
1.20
1.41
1.51
1.53
1.58
1.72
1.94
2.16
2.26
2.20
2.00
1.76
1.58
1.49
1.44
1.36
1.19
0.96
0.77
0.74
0.92
1.27
1.69
2.04
2.21
2.18
1.99
1.71
1.41
1.13
0.89
0.75
0.73
0.89
1.23
1.67
2.08
2.30
2.22
1.81
1.17
0.47
-0.10
-0.41
-0.43
-0.22
0.14
0.54
0.90
1.12
1.15
0.98
0.66
0.32
0.13
0.17
0.46
0.86
1.22
1.37
1.27
1.00
0.69
0.47
0.40
0.44
0.49
0.50
0.47
0.45
0.51
0.67
0.84
0.94
0.87
0.63
0.34
0.13
0.11
0.32
0.68
1.08
1.36
1.47
1.38
1.16
0.87
0.59
0.38
0.25
0.16
0.05
-0.12
-0.34
-0.55
-0.66
-0.61
-0.41
-0.13
0.16
0.40
0.57
0.70
0.82
0.93
0.99
0.96
0.79
0.51
0.18
-0.08
-0.20
-0.14
0.07
0.33
0.52
0.59
0.51
0.36
0.18
0.03
-0.07
-0.10
-0.05
0.09
0.31
0.56
0.77
0.86
0.80
0.63
0.43
0.29
0.27
0.35
0.46
0.55
0.55
0.46
0.31
0.15
0.04
0.03
0.13
0.33
0.57
0.77
0.87
0.83
0.64
0.38
0.13
-0.03
-0.04
0.11
0.39
0.76
1.16
1.51
1.72
1.71
1.44
0.98
0.44
-0.02
-0.29
-0.36
-0.27
-0.10
0.07
0.21
0.31
0.35
0.28
0.09
-0.21
-0.54
-0.78
-0.86
-0.75
-0.57
-0.42
-0.42
-0.58
-0.80
-0.95
-0.94
-0.75
-0.45
-0.12
0.15
0.34
0.50
0.66
0.84
0.99
1.05
0.97
0.76
0.49
0.27
0.16
0.15
0.19
0.19
0.12
0.00
-0.06
0.01
0.22
0.45
0.54
0.38
0.02
-0.37
-0.55
-0.38
0.08
0.62
0.99
1.07
0.90
0.62
0.41
0.34
0.40
0.46
0.46
0.38
0.29
0.25
0.28
0.34
0.36
0.27
0.08
-0.10
-0.17
-0.06
0.19
0.43
0.53
0.36
-0.03
-0.48
-0.80
-0.86
-0.67
-0.35
-0.04
0.15
0.19
0.12
0.02
-0.08
-0.16
-0.24
-0.33
-0.43
-0.48
-0.43
-0.23
0.09
0.46
0.76
0.89
0.82
0.65
0.46
0.33
0.29
0.29
0.26
0.17
0.04
-0.07
-0.11
-0.07
0.01
0.09
0.15
0.17
0.18
0.17
0.10
-0.05
-0.28
-0.55
-0.76
-0.85
-0.77
-0.55
-0.29
-0.10
-0.02
-0.03
-0.05
-0.00
0.13
0.29
0.37
0.32
0.13
-0.10
-0.25
-0.22
-0.00
0.35
0.73
1.06
1.24
1.24
1.08
0.82
0.52
0.27
0.10
0.03
0.02
-0.00
-0.06
-0.14
-0.22
-0.26
-0.27
-0.28
-0.31
-0.36
-0.38
-0.32
-0.17
0.04
0.22
0.30
0.27
0.18
0.12
0.18
0.34
0.55
0.68
0.69
0.58
0.41
0.28
0.26
0.32
0.43
0.48
0.44
0.29
0.07
-0.19
-0.45
-0.67
-0.83
-0.89
-0.84
-0.66
-0.41
-0.10
0.20
0.45
0.66
0.80
0.90
0.93
0.87
0.68
0.34
-0.12
-0.62
-1.01
-1.19
-1.10
-0.80
-0.43
-0.13
-0.01
-0.03
-0.08
-0.05
0.13
0.37
0.56
0.62
0.53
0.41
0.35
0.40
0.50
0.52
0.35
-0.00
-0.40
-0.68
-0.71
-0.52
-0.24
-0.05
-0.06
-0.24
-0.45
-0.56
-0.49
-0.26
0.03
0.27
0.40
0.43
0.38
0.30
0.22
0.13
0.05
0.01
0.02
0.10
0.28
0.54
0.82
1.03
1.06
0.85
0.43
-0.07
-0.51
-0.77
-0.82
-0.75
-0.64
-0.58
-0.56
-0.52
-0.41
-0.20
0.06
0.30
0.45
0.48
0.37
0.16
-0.12
-0.38
-0.55
-0.60
-0.54
-0.43
-0.35
-0.36
-0.42
-0.45
-0.38
-0.17
0.11
0.36
0.47
0.42
0.31
0.27
0.37
0.62
0.88
1.01
0.91
0.59
0.19
-0.14
-0.29
-0.23
-0.04
0.20
0.39
0.50
0.51
0.42
0.24
-0.02
-0.28
-0.50
-0.60
-0.58
-0.46
-0.33
-0.20
-0.10
-0.00
0.11
0.21
0.27
0.25
0.15
0.02
-0.10
-0.14
-0.13
-0.08
-0.07
-0.11
-0.18
-0.23
-0.20
-0.08
0.08
0.21
0.23
0.13
-0.03
-0.19
-0.30
-0.35
-0.37
-0.43
-0.55
-0.71
-0.88
-0.96
-0.91
-0.68
-0.25
0.31
0.89
1.36
1.55
1.43
1.03
0.50
-0.01
-0.38
-0.57
-0.61
-0.51
-0.34
-0.11
0.14
0.36
0.53
0.61
0.61
0.56
0.50
0.44
0.39
0.33
0.27
0.19
0.14
0.08
0.03
-0.03
-0.10
-0.17
-0.19
-0.13
0.03
0.24
0.43
0.54
0.56
0.52
0.45
0.39
0.33
0.23
0.07
-0.15
-0.37
-0.53
-0.57
-0.47
-0.25
0.05
0.36
0.60
0.68
0.55
0.19
-0.38
-1.00
-1.53
-1.77
-1.61
-1.05
-0.23
0.62
1.26
1.52
1.36
0.85
0.19
-0.43
-0.85
-0.98
-0.81
-0.40
0.12
0.58
0.78
0.64
0.18
-0.45
-0.99
-1.22
-1.07
-0.61
-0.05
0.40
0.59
0.52
0.28
0.01
-0.23
-0.41
-0.55
-0.68
-0.75
-0.73
-0.59
-0.40
-0.27
-0.30
-0.49
-0.73
-0.85
-0.70
-0.31
0.21
0.66
0.92
0.99
1.00
1.08
1.28
1.52
1.65
1.56
1.27
0.90
0.63
0.53
0.59
0.66
0.58
0.28
-0.19
-0.66
-0.96
-1.00
-0.78
-0.42
-0.06
0.16
0.22
0.11
-0.11
-0.38
-0.65
-0.90
-1.07
-1.11
-0.96
-0.64
-0.22
0.18
0.46
0.55
0.46
0.26
0.01
-0.23
-0.47
-0.69
-0.89
-0.98
-0.90
-0.57
-0.04
0.56
1.05
1.28
1.22
0.96
0.67
0.51
0.54
0.74
1.00
1.19
1.20
1.01
0.64
0.14
-0.38
-0.82
-1.13
-1.27
-1.27
-1.16
-0.99
-0.83
-0.68
-0.57
-0.49
-0.44
-0.38
-0.31
-0.20
-0.07
0.04
0.09
0.07
-0.02
-0.15
-0.27
-0.35
-0.34
-0.23
-0.00
0.31
0.63
0.87
0.96
0.87
0.69
0.54
0.54
0.73
1.01
1.24
1.27
1.04
0.64
0.21
-0.08
-0.18
-0.15
-0.11
-0.19
-0.44
-0.79
-1.12
-1.32
-1.31
-1.09
-0.73
-0.32
0.04
0.27
0.32
0.22
0.01
-0.23
-0.44
-0.56
-0.55
-0.42
-0.14
0.23
0.62
0.92
1.01
0.83
0.44
-0.05
-0.45
-0.63
-0.53
-0.22
0.20
0.59
0.87
1.00
1.00
0.88
0.66
0.36
0.02
-0.32
-0.60
-0.75
-0.75
-0.62
-0.42
-0.21
-0.06
0.01
0.00
-0.06
-0.14
-0.23
-0.31
-0.34
-0.29
-0.13
0.12
0.39
0.58
0.57
0.34
-0.06
-0.49
-0.82
-0.97
-0.95
-0.81
-0.61
-0.36
-0.07
0.27
0.62
0.89
0.98
0.86
0.55
0.18
-0.13
-0.28
-0.25
-0.08
0.09
0.19
0.16
0.04
-0.08
-0.13
-0.08
0.04
0.14
0.14
0.03
-0.13
-0.26
-0.25
-0.10
0.14
0.35
0.45
0.41
0.28
0.16
0.09
0.06
-0.00
-0.14
-0.36
-0.56
-0.65
-0.55
-0.30
-0.01
0.22
0.33
0.36
0.39
0.46
0.56
0.62
0.57
0.41
0.17
-0.09
-0.29
-0.43
-0.51
-0.55
-0.56
-0.57
-0.59
-0.65
-0.72
-0.75
-0.65
-0.39
0.02
0.43
0.70
0.76
0.64
0.47
0.42
0.54
0.78
1.04
1.19
1.17
1.03
0.80
0.55
0.27
-0.04
-0.39
-0.73
-0.98
-1.07
-0.97
-0.70
-0.32
0.04
0.30
0.38
0.25
-0.05
-0.42
-0.76
-0.96
-0.98
-0.81
-0.51
-0.17
0.13
0.35
0.52
0.66
0.77
0.81
0.73
0.50
0.16
-0.19
-0.43
-0.49
-0.42
-0.29
-0.19
-0.18
-0.20
-0.19
-0.13
-0.06
-0.05
-0.15
-0.35
-0.55
-0.65
-0.59
-0.38
-0.10
0.16
0.34
0.41
0.38
0.26
0.07
-0.17
-0.44
-0.65
-0.71
-0.54
-0.13
0.41
0.90
1.14
1.01
0.56
0.00
-0.42
-0.53
-0.32
0.06
0.40
0.53
0.43
0.21
0.02
-0.05
0.01
0.07
0.07
-0.02
-0.12
-0.13
0.01
0.25
0.47
0.56
0.46
0.20
-0.12
-0.42
-0.63
-0.72
-0.68
-0.51
-0.26
0.02
0.26
0.43
0.50
0.47
0.37
0.19
-0.03
-0.24
-0.36
-0.30
-0.04
0.33
0.68
0.84
0.76
0.46
0.09
-0.25
-0.46
-0.49
-0.35
-0.06
0.32
0.69
0.95
1.03
0.92
0.70
0.50
0.38
0.34
0.27
0.11
-0.17
-0.47
-0.67
-0.70
-0.56
-0.37
-0.24
-0.26
-0.38
-0.52
-0.57
-0.50
-0.34
-0.15
0.00
0.11
0.18
0.24
0.27
0.25
0.16
-0.01
-0.19
-0.32
-0.38
-0.41
-0.48
-0.65
-0.88
-1.10
-1.17
-1.04
-0.76
-0.45
-0.24
-0.22
-0.33
-0.47
-0.55
-0.50
-0.35
-0.17
-0.03
0.06
0.11
0.18
0.29
0.46
0.66
0.84
0.98
1.06
1.08
1.06
0.97
0.83
0.64
0.44
0.28
0.22
0.26
0.36
0.44
0.44
0.35
0.20
0.10
0.10
0.20
0.34
0.39
0.32
0.17
0.03
0.01
0.13
0.33
0.47
0.44
0.20
-0.17
-0.58
-0.90
-1.10
-1.19
-1.19
-1.12
-1.00
-0.81
-0.53
-0.21
0.11
0.35
0.45
0.37
0.16
-0.08
-0.19
-0.10
0.21
0.62
0.96
1.08
0.93
0.55
0.10
-0.33
-0.65
-0.85
-0.95
-0.95
-0.86
-0.67
-0.43
-0.21
-0.06
0.04
0.14
0.29
0.49
0.71
0.87
0.91
0.85
0.71
0.55
0.39
0.22
0.05
-0.10
-0.17
-0.15
-0.09
-0.03
-0.03
-0.07
-0.08
-0.04
0.03
0.03
-0.14
-0.51
-0.98
-1.35
-1.46
-1.25
-0.79
-0.29
0.08
0.18
0.03
-0.25
-0.49
-0.57
-0.48
-0.29
-0.15
-0.17
-0.36
-0.63
-0.80
-0.75
-0.43
0.07
0.60
1.01
1.27
1.39
1.44
1.43
1.35
1.14
0.79
0.36
-0.03
-0.28
-0.33
-0.22
-0.07
0.03
0.05
-0.03
-0.12
-0.19
-0.21
-0.17
-0.10
0.01
0.19
0.45
0.76
1.05
1.22
1.18
0.89
0.42
-0.12
-0.59
-0.87
-0.93
-0.80
-0.60
-0.44
-0.37
-0.38
-0.37
-0.29
-0.09
0.14
0.31
0.35
0.23
0.03
-0.16
-0.28
-0.33
-0.41
-0.57
-0.80
-1.02
-1.08
-0.92
-0.54
-0.06
0.35
0.58
0.59
0.44
0.21
0.01
-0.09
-0.08
0.03
0.21
0.41
0.57
0.67
0.70
0.65
0.54
0.40
0.23
0.06
-0.11
-0.26
-0.38
-0.47
-0.52
-0.54
-0.55
-0.57
-0.61
-0.65
-0.65
-0.57
-0.38
-0.10
0.22
0.52
0.76
0.92
1.01
1.04
1.01
0.88
0.67
0.38
0.04
-0.30
-0.58
-0.75
-0.75
-0.58
-0.25
0.14
0.49
0.70
0.70
0.52
0.24
-0.02
-0.15
-0.12
0.04
0.22
0.33
0.29
0.13
-0.10
-0.29
-0.37
-0.34
-0.24
-0.14
-0.09
-0.09
-0.12
-0.15
-0.20
-0.30
-0.47
-0.67
-0.84
-0.88
-0.72
-0.36
0.12
0.60
0.95
1.10
1.01
0.74
0.35
-0.05
-0.39
-0.61
-0.71
-0.70
-0.62
-0.49
-0.31
-0.11
0.11
0.31
0.48
0.60
0.70
0.81
0.98
1.18
1.32
1.29
0.98
0.41
-0.33
-1.04
-1.49
-1.56
-1.24
-0.69
-0.08
0.40
0.69
0.78
0.74
0.60
0.39
0.13
-0.13
-0.32
-0.38
-0.29
-0.14
-0.05
-0.13
-0.41
-0.77
-1.04
-1.06
-0.82
-0.41
-0.02
0.16
0.09
-0.15
-0.42
-0.54
-0.43
-0.11
0.34
0.77
1.07
1.16
1.08
0.88
0.70
0.62
0.64
0.69
0.64
0.42
0.02
-0.46
-0.89
-1.16
-1.26
-1.22
-1.09
-0.87
-0.56
-0.16
0.24
0.54
0.61
0.43
0.06
-0.36
-0.66
-0.74
-0.61
-0.33
-0.01
0.23
0.34
0.34
0.27
0.19
0.12
0.07
0.04
0.05
0.13
0.28
0.48
0.65
0.70
0.59
0.35
0.07
-0.12
-0.18
-0.11
0.03
0.15
0.24
0.30
0.33
0.34
0.29
0.18
0.03
-0.09
-0.12
-0.04
0.13
0.27
0.30
0.20
-0.00
-0.19
-0.29
-0.28
-0.20
-0.17
-0.27
-0.49
-0.76
-0.94
-0.95
-0.75
-0.41
-0.03
0.29
0.51
0.61
0.62
0.55
0.37
0.08
-0.30
-0.65
-0.84
-0.73
-0.30
0.36
1.03
1.49
1.59
1.31
0.81
0.27
-0.14
-0.36
-0.46
-0.53
-0.63
-0.72
-0.73
-0.59
-0.32
-0.02
0.19
0.22
0.11
-0.07
-0.20
-0.23
-0.15
-0.02
0.10
0.16
0.17
0.14
0.09
0.02
-0.08
-0.20
-0.31
-0.36
-0.29
-0.08
0.23
0.51
0.64
0.54
0.23
-0.16
-0.47
-0.59
-0.51
-0.31
-0.08
0.08
0.14
0.11
-0.03
-0.25
-0.54
-0.81
-0.98
-0.98
-0.80
-0.51
-0.22
-0.03
0.07
0.11
0.17
0.30
0.47
0.63
0.71
0.69
0.62
0.55
0.55
0.63
0.78
0.93
1.04
1.07
0.98
0.77
0.48
0.15
-0.16
-0.40
-0.54
-0.59
-0.57
-0.50
-0.40
-0.31
-0.25
-0.26
-0.37
-0.54
-0.69
-0.73
-0.60
-0.29
0.09
0.41
0.56
0.49
0.27
0.02
-0.15
-0.17
-0.06
0.13
0.33
0.47
0.53
0.48
0.33
0.08
-0.20
-0.46
-0.63
-0.70
-0.67
-0.57
-0.47
-0.39
-0.39
-0.49
-0.73
-1.07
-1.43
-1.70
-1.74
-1.50
-1.05
-0.54
-0.17
-0.08
-0.29
-0.73
-1.25
-1.66
-1.82
-1.65
-1.17
-0.46
0.35
1.12
1.77
2.27
2.62
2.83
2.88
2.77
2.47
2.05
1.60
1.24
1.06
1.04
1.14
1.24
1.31
1.34
1.39
1.49
1.64
1.78
1.78
1.59
1.21
0.71
0.20
-0.26
-0.61
-0.87
-1.07
-1.20
-1.29
-1.34
-1.41
-1.49
-1.57
-1.62
-1.58
-1.43
-1.21
-1.02
-0.90
-0.86
-0.81
-0.64
-0.32
0.07
0.38
0.44
0.21
-0.20
-0.63
-0.89
-0.94
-0.79
-0.55
-0.30
-0.09
0.10
0.31
0.52
0.67
0.68
0.52
0.24
-0.07
-0.31
-0.41
-0.37
-0.25
-0.12
-0.02
0.04
0.12
0.23
0.38
0.52
0.58
0.54
0.44
0.37
0.40
0.53
0.65
0.64
0.41
0.03
-0.37
-0.61
-0.60
-0.38
-0.11
0.06
0.02
-0.18
-0.43
-0.60
-0.60
-0.42
-0.10
0.31
0.72
1.04
1.17
1.05
0.67
0.14
-0.42
-0.85
-1.06
-1.06
-0.90
-0.68
-0.45
-0.20
0.06
0.35
0.61
0.75
0.72
0.54
0.30
0.13
0.10
0.17
0.24
0.22
0.10
-0.03
-0.04
0.12
0.34
0.43
0.26
-0.17
-0.69
-1.04
-1.08
-0.81
-0.42
-0.14
-0.11
-0.30
-0.59
-0.80
-0.84
-0.68
-0.40
-0.06
0.26
0.54
0.73
0.82
0.81
0.69
0.50
0.30
0.14
0.06
0.05
0.06
0.04
-0.09
-0.32
-0.60
-0.82
-0.86
-0.67
-0.30
0.12
0.45
0.58
0.52
0.33
0.09
-0.14
-0.37
-0.60
-0.82
-0.96
-0.95
-0.75
-0.39
0.02
0.38
0.62
0.72
0.73
0.72
0.74
0.81
0.93
1.04
1.11
1.08
0.93
0.65
0.27
-0.12
-0.46
-0.66
-0.70
-0.59
-0.40
-0.21
-0.08
0.00
0.08
0.20
0.33
0.43
0.39
0.17
-0.19
-0.57
-0.83
-0.84
-0.60
-0.18
0.26
0.58
0.71
0.63
0.38
0.04
-0.28
-0.51
-0.60
-0.54
-0.38
-0.17
0.02
0.13
0.16
0.11
0.03
-0.06
-0.11
-0.08
0.04
0.24
0.48
0.69
0.77
0.69
0.45
0.13
-0.18
-0.37
-0.45
-0.47
-0.48
-0.53
-0.60
-0.62
-0.56
-0.43
-0.31
-0.25
-0.25
-0.25
-0.17
0.03
0.31
0.56
0.70
0.69
0.59
0.51
0.49
0.51
0.49
0.38
0.18
-0.03
-0.15
-0.13
-0.02
0.06
0.05
-0.07
-0.21
-0.25
-0.14
0.11
0.38
0.56
0.62
0.57
0.49
0.41
0.34
0.23
0.07
-0.08
-0.18
-0.19
-0.15
-0.13
-0.21
-0.41
-0.65
-0.82
-0.85
-0.72
-0.50
-0.26
-0.05
0.13
0.27
0.35
0.34
0.24
0.09
-0.04
-0.06
0.03
0.16
0.21
0.10
-0.16
-0.47
-0.71
-0.83
-0.84
-0.80
-0.76
-0.70
-0.56
-0.28
0.12
0.55
0.83
0.84
0.59
0.17
-0.25
-0.53
-0.64
-0.61
-0.54
-0.47
-0.38
-0.25
-0.07
0.12
0.23
0.25
0.18
0.13
0.18
0.35
0.55
0.66
0.62
0.41
0.13
-0.11
-0.25
-0.27
-0.19
-0.04
0.13
0.30
0.40
0.38
0.20
-0.10
-0.38
-0.52
-0.44
-0.18
0.13
0.32
0.29
0.10
-0.12
-0.22
-0.15
0.07
0.30
0.44
0.45
0.37
0.30
0.29
0.33
0.39
0.41
0.36
0.27
0.17
0.11
0.09
0.12
0.16
0.18
0.14
0.02
-0.19
-0.46
-0.74
-0.95
-1.04
-0.99
-0.82
-0.59
-0.34
-0.12
0.03
0.10
0.09
0.00
-0.15
-0.30
-0.40
-0.39
-0.25
-0.03
0.17
0.25
0.17
-0.01
-0.19
-0.22
-0.05
0.32
0.76
1.12
1.26
1.13
0.76
0.30
-0.09
-0.27
-0.19
0.07
0.37
0.54
0.54
0.40
0.26
0.22
0.28
0.37
0.38
0.30
0.17
0.09
0.11
0.15
0.12
-0.06
-0.38
-0.69
-0.85
-0.77
-0.52
-0.24
-0.06
-0.08
-0.25
-0.48
-0.66
-0.75
-0.74
-0.65
-0.48
-0.26
-0.02
0.18
0.28
0.27
0.18
0.08
0.01
0.02
0.09
0.20
0.30
0.37
0.38
0.33
0.22
0.09
-0.05
-0.12
-0.08
0.06
0.27
0.46
0.56
0.51
0.32
0.03
-0.24
-0.42
-0.41
-0.22
0.06
0.31
0.37
0.19
-0.14
-0.50
-0.72
-0.72
-0.55
-0.31
-0.11
0.01
0.09
0.21
0.37
0.55
0.64
0.58
0.37
0.09
-0.13
-0.24
-0.23
-0.18
-0.14
-0.14
-0.13
-0.07
0.05
0.16
0.18
0.05
-0.21
-0.47
-0.59
-0.49
-0.17
0.24
0.57
0.68
0.53
0.21
-0.12
-0.31
-0.27
-0.01
0.36
0.73
0.98
1.04
0.94
0.72
0.49
0.30
0.14
-0.01
-0.20
-0.47
-0.77
-1.06
-1.24
-1.25
-1.09
-0.81
-0.48
-0.18
0.07
0.25
0.37
0.43
0.42
0.33
0.20
0.10
0.08
0.14
0.23
0.24
0.09
-0.22
-0.60
-0.93
-1.10
-1.10
-0.98
-0.81
-0.64
-0.45
-0.19
0.12
0.46
0.72
0.84
0.81
0.70
0.55
0.42
0.33
0.28
0.26
0.28
0.32
0.35
0.34
0.26
0.13
-0.00
-0.09
-0.09
0.02
0.20
0.38
0.50
0.50
0.36
0.08
-0.28
-0.61
-0.80
-0.78
-0.57
-0.28
-0.03
0.07
0.04
-0.03
-0.04
0.10
0.33
0.55
0.65
0.58
0.40
0.23
0.15
0.18
0.22
0.19
0.01
-0.29
-0.61
-0.79
-0.75
-0.47
-0.07
0.31
0.52
0.53
0.38
0.18
0.02
-0.07
-0.13
-0.21
-0.32
-0.44
-0.48
-0.41
-0.23
-0.00
0.19
0.29
0.30
0.24
0.20
0.22
0.30
0.39
0.43
0.35
0.16
-0.07
-0.27
-0.39
-0.41
-0.36
-0.29
-0.20
-0.06
0.14
0.39
0.63
0.75
0.65
0.31
-0.18
-0.68
-1.03
-1.14
-1.01
-0.73
-0.39
-0.11
0.08
0.18
0.20
0.14
0.01
-0.19
-0.44
-0.68
-0.84
-0.86
-0.71
-0.44
-0.09
0.21
0.39
0.43
0.34
0.20
0.10
0.11
0.26
0.51
0.77
0.96
1.02
0.97
0.83
0.63
0.39
0.13
-0.15
-0.40
-0.55
-0.58
-0.49
-0.32
-0.17
-0.08
-0.05
-0.06
-0.06
-0.08
-0.14
-0.27
-0.44
-0.57
-0.55
-0.36
-0.03
0.33
0.63
0.81
0.88
0.83
0.65
0.35
-0.04
-0.42
-0.65
-0.61
-0.30
0.18
0.63
0.87
0.85
0.59
0.22
-0.12
-0.33
-0.37
-0.29
-0.17
-0.07
-0.01
0.02
0.04
0.09
0.15
0.22
0.24
0.23
0.18
0.12
0.07
0.02
-0.05
-0.13
-0.18
-0.13
0.03
0.27
0.48
0.53
0.38
0.09
-0.23
-0.46
-0.55
-0.54
-0.49
-0.48
-0.54
-0.60
-0.61
-0.53
-0.37
-0.23
-0.17
-0.26
-0.47
-0.68
-0.80
-0.76
-0.56
-0.30
-0.07
0.07
0.11
0.10
0.10
0.12
0.13
0.12
0.08
0.07
0.13
0.29
0.53
0.77
0.91
0.91
0.78
0.60
0.46
0.43
0.47
0.53
0.51
0.37
0.16
-0.04
-0.12
-0.05
0.11
0.25
0.24
0.05
-0.30
-0.72
-1.13
-1.46
-1.63
-1.61
-1.34
-0.81
-0.09
0.65
1.24
1.52
1.45
1.13
0.73
0.41
0.26
0.27
0.34
0.39
0.38
0.32
0.25
0.21
0.24
0.33
0.44
0.52
0.49
0.30
-0.05
-0.48
-0.88
-1.12
-1.12
-0.92
-0.65
-0.48
-0.48
-0.57
-0.62
-0.48
-0.12
0.36
0.76
0.92
0.76
0.37
-0.11
-0.51
-0.72
-0.72
-0.56
-0.31
-0.03
0.20
0.34
0.35
0.22
-0.05
-0.41
-0.75
-0.98
-1.00
-0.78
-0.36
0.12
0.54
0.79
0.83
0.71
0.51
0.31
0.14
0.02
-0.07
-0.13
-0.15
-0.13
-0.11
-0.10
-0.14
-0.21
-0.25
-0.20
-0.02
0.24
0.47
0.56
0.44
0.15
-0.19
-0.46
-0.59
-0.60
-0.56
-0.53
-0.52
-0.46
-0.29
0.03
0.45
0.86
1.17
1.30
1.24
1.07
0.86
0.71
0.63
0.58
0.49
0.29
-0.04
-0.38
-0.60
-0.55
-0.20
0.32
0.81
1.08
1.03
0.71
0.27
-0.16
-0.48
-0.67
-0.74
-0.70
-0.59
-0.42
-0.24
-0.09
0.00
0.05
0.04
0.00
-0.10
-0.26
-0.47
-0.67
-0.78
-0.76
-0.63
-0.45
-0.32
-0.27
-0.33
-0.46
-0.58
-0.66
-0.66
-0.56
-0.37
-0.11
0.21
0.53
0.82
1.00
1.06
0.95
0.70
0.33
-0.08
-0.46
-0.75
-0.92
-0.98
-0.95
-0.83
-0.63
-0.38
-0.14
0.07
0.22
0.33
0.45
0.59
0.78
0.96
1.07
1.09
1.04
0.96
0.92
0.92
0.94
0.90
0.72
0.40
-0.03
-0.47
-0.81
-1.01
-1.06
-1.02
-0.96
-0.94
-0.96
-0.97
-0.93
-0.79
-0.55
-0.25
-0.01
0.14
0.17
0.14
0.14
0.24
0.47
0.75
1.00
1.12
1.09
0.91
0.66
0.36
0.04
-0.30
-0.64
-0.94
-1.14
-1.16
-0.97
-0.61
-0.15
0.29
0.63
0.82
0.89
0.86
0.79
0.72
0.65
0.58
0.50
0.37
0.17
-0.10
-0.43
-0.74
-0.93
-0.93
-0.73
-0.41
-0.10
0.09
0.17
0.16
0.15
0.18
0.22
0.21
0.11
-0.06
-0.24
-0.33
-0.27
-0.09
0.11
0.19
0.05
-0.32
-0.82
-1.27
-1.50
-1.41
-1.01
-0.44
0.14
0.56
0.75
0.72
0.54
0.26
-0.03
-0.25
-0.31
-0.14
0.27
0.81
1.29
1.52
1.39
0.94
0.36
-0.12
-0.37
-0.35
-0.18
0.00
0.10
0.09
0.02
-0.03
-0.03
-0.00
0.01
-0.04
-0.17
-0.33
-0.44
-0.45
-0.31
-0.09
0.13
0.25
0.21
0.04
-0.20
-0.40
-0.45
-0.34
-0.13
0.07
0.18
0.14
0.00
-0.17
-0.29
-0.30
-0.21
-0.06
0.11
0.24
0.32
0.36
0.36
0.31
0.23
0.12
0.02
-0.06
-0.11
-0.15
-0.18
-0.22
-0.24
-0.25
-0.24
-0.22
-0.16
-0.05
0.15
0.42
0.70
0.89
0.96
0.87
0.68
0.42
0.16
-0.08
-0.27
-0.39
-0.42
-0.34
-0.20
-0.02
0.12
0.20
0.16
0.01
-0.26
-0.58
-0.86
-0.98
-0.87
-0.54
-0.09
0.32
0.57
0.60
0.48
0.32
0.22
0.24
0.36
0.52
0.66
0.73
0.70
0.56
0.33
0.07
-0.14
-0.25
-0.24
-0.15
-0.05
0.01
0.02
0.01
0.03
0.08
0.14
0.14
0.06
-0.12
-0.35
-0.53
-0.62
-0.58
-0.42
-0.16
0.13
0.39
0.51
0.42
0.09
-0.44
-1.01
-1.45
-1.57
-1.33
-0.81
-0.18
0.32
0.55
0.49
0.26
0.04
-0.04
0.02
0.15
0.24
0.20
0.09
0.00
0.06
0.29
0.59
0.78
0.73
0.41
-0.04
-0.39
-0.48
-0.27
0.12
0.45
0.54
0.33
-0.09
-0.54
-0.83
-0.87
-0.67
-0.32
0.09
0.46
0.75
0.96
1.07
1.07
0.94
0.68
0.35
0.02
-0.19
-0.22
-0.08
0.11
0.25
0.23
0.06
-0.20
-0.42
-0.54
-0.53
-0.47
-0.40
-0.38
-0.41
-0.45
-0.47
-0.43
-0.32
-0.16
0.02
0.17
0.26
0.25
0.13
-0.08
-0.35
-0.65
-0.89
-1.02
-0.96
-0.72
-0.34
0.06
0.40
0.62
0.72
0.72
0.63
0.48
0.24
-0.06
-0.35
-0.53
-0.52
-0.34
-0.08
0.14
0.22
0.16
0.03
-0.09
-0.12
-0.02
0.18
0.42
0.61
0.71
0.66
0.48
0.24
0.04
-0.06
-0.02
0.14
0.37
0.61
0.81
0.94
0.97
0.88
0.62
0.24
-0.20
-0.55
-0.71
-0.65
-0.41
-0.11
0.13
0.23
0.20
0.11
0.03
-0.01
0.03
0.12
0.21
0.25
0.19
0.03
-0.18
-0.37
-0.48
-0.46
-0.36
-0.24
-0.16
-0.13
-0.13
-0.12
-0.10
-0.10
-0.19
-0.36
-0.56
-0.67
-0.58
-0.27
0.16
0.57
0.80
0.77
0.50
0.10
-0.29
-0.55
-0.62
-0.52
-0.33
-0.12
0.01
0.01
-0.12
-0.33
-0.56
-0.72
-0.77
-0.67
-0.44
-0.13
0.22
0.55
0.79
0.90
0.84
0.65
0.40
0.21
0.20
0.40
0.73
1.04
1.15
0.98
0.60
0.12
-0.30
-0.59
-0.75
-0.86
-0.95
-1.04
-1.09
-1.06
-0.95
-0.81
-0.68
-0.61
-0.58
-0.55
-0.44
-0.23
0.07
0.38
0.61
0.66
0.50
0.17
-0.23
-0.59
-0.79
-0.76
-0.51
-0.08
0.42
0.86
1.10
1.08
0.81
0.42
0.06
-0.13
-0.10
0.07
0.29
0.46
0.57
0.63
0.69
0.77
0.82
0.78
0.66
0.50
0.37
0.34
0.41
0.51
0.55
0.47
0.24
-0.07
-0.40
-0.65
-0.74
-0.66
-0.43
-0.15
0.02
-0.03
-0.32
-0.75
-1.12
-1.23
-1.03
-0.58
-0.10
0.22
0.30
0.16
-0.06
-0.23
-0.31
-0.32
-0.29
-0.22
-0.09
0.15
0.46
0.75
0.89
0.82
0.58
0.29
0.12
0.10
0.21
0.30
0.27
0.07
-0.23
-0.49
-0.59
-0.49
-0.23
0.12
0.44
0.64
0.63
0.43
0.10
-0.26
-0.53
-0.65
-0.66
-0.63
-0.61
-0.61
-0.58
-0.44
-0.18
0.14
0.40
0.48
0.34
0.03
-0.33
-0.57
-0.59
-0.39
-0.03
0.36
0.62
0.69
0.57
0.36
0.17
0.12
0.19
0.33
0.42
0.40
0.24
-0.01
-0.29
-0.52
-0.68
-0.77
-0.78
-0.75
-0.66
-0.53
-0.34
-0.13
0.06
0.20
0.26
0.25
0.19
0.13
0.08
0.02
-0.06
-0.16
-0.27
-0.36
-0.39
-0.35
-0.24
-0.08
0.12
0.34
0.57
0.77
0.90
0.92
0.82
0.63
0.40
0.22
0.14
0.18
0.32
0.45
0.51
0.44
0.27
0.08
-0.08
-0.20
-0.32
-0.51
-0.76
-0.96
-1.02
-0.86
-0.52
-0.14
0.15
0.27
0.31
0.38
0.57
0.85
1.11
1.19
1.02
0.66
0.24
-0.10
-0.30
-0.39
-0.42
-0.42
-0.38
-0.25
-0.00
0.33
0.66
0.85
0.82
0.55
0.11
-0.38
-0.79
-1.04
-1.09
-0.97
-0.71
-0.37
0.02
0.40
0.71
0.87
0.84
0.63
0.30
-0.03
-0.26
-0.38
-0.43
-0.50
-0.62
-0.74
-0.79
-0.70
-0.47
-0.19
-0.00
0.01
-0.16
-0.39
-0.55
-0.52
-0.28
0.12
0.56
0.89
1.00
0.85
0.47
-0.02
-0.46
-0.71
-0.68
-0.38
0.04
0.41
0.57
0.46
0.12
-0.31
-0.72
-0.97
-1.01
-0.86
-0.55
-0.18
0.18
0.44
0.52
0.43
0.21
-0.05
-0.24
-0.31
-0.27
-0.17
-0.08
-0.04
-0.03
-0.05
-0.09
-0.15
-0.23
-0.30
-0.32
-0.28
-0.16
-0.01
0.11
0.16
0.18
0.21
0.31
0.46
0.63
0.74
0.75
0.67
0.58
0.54
0.57
0.62
0.62
0.49
0.24
-0.06
-0.34
-0.49
-0.48
-0.34
-0.12
0.09
0.19
0.15
-0.04
-0.28
-0.47
-0.53
-0.46
-0.36
-0.33
-0.43
-0.64
-0.84
-0.89
-0.75
-0.45
-0.10
0.22
0.43
0.55
0.60
0.59
0.52
0.39
0.22
0.08
0.06
0.20
0.49
0.83
1.11
1.22
1.10
0.78
0.35
-0.08
-0.44
-0.64
-0.66
-0.49
-0.16
0.24
0.60
0.80
0.76
0.49
0.09
-0.31
-0.57
-0.61
-0.44
-0.12
0.24
0.52
0.64
0.58
0.39
0.15
-0.05
-0.17
-0.22
-0.26
-0.33
-0.43
-0.50
-0.51
-0.45
-0.35
-0.30
-0.32
-0.41
-0.50
-0.53
-0.49
-0.39
-0.27
-0.14
-0.04
0.06
0.16
0.24
0.31
0.37
0.44
0.51
0.59
0.61
0.55
0.39
0.15
-0.11
-0.37
-0.59
-0.77
-0.89
-0.90
-0.80
-0.59
-0.29
0.01
0.26
0.42
0.49
0.50
0.47
0.41
0.32
0.22
0.16
0.17
0.29
0.47
0.64
0.71
0.61
0.33
-0.06
-0.43
-0.66
-0.65
-0.41
-0.02
0.32
0.45
0.27
-0.16
-0.68
-1.08
-1.24
-1.17
-0.95
-0.71
-0.53
-0.37
-0.17
0.10
0.41
0.63
0.64
0.42
0.09
-0.18
-0.24
-0.07
0.23
0.52
0.72
0.80
0.82
0.82
0.79
0.69
0.50
0.26
0.08
0.06
0.21
0.46
0.64
0.64
0.43
0.08
-0.27
-0.53
-0.67
-0.73
-0.78
-0.84
-0.88
-0.86
-0.74
-0.53
-0.28
-0.04
0.14
0.27
0.36
0.41
0.44
0.41
0.33
0.21
0.08
0.00
0.00
0.07
0.15
0.19
0.17
0.11
0.09
0.17
0.37
0.61
0.78
0.75
0.48
0.02
-0.48
-0.86
-1.03
-0.97
-0.78
-0.59
-0.47
-0.44
-0.46
-0.44
-0.34
-0.14
0.08
0.25
0.32
0.29
0.21
0.12
0.03
-0.05
-0.14
-0.23
-0.28
-0.24
-0.10
0.11
0.33
0.49
0.56
0.53
0.45
0.35
0.24
0.10
-0.06
-0.22
-0.35
-0.43
-0.46
-0.48
-0.53
-0.59
-0.62
-0.55
-0.37
-0.12
0.12
0.30
0.40
0.45
0.49
0.51
0.48
0.35
0.12
-0.17
-0.42
-0.50
-0.37
-0.04
0.38
0.71
0.83
0.67
0.30
-0.12
-0.42
-0.48
-0.33
-0.06
0.19
0.32
0.30
0.16
-0.08
-0.38
-0.67
-0.88
-0.90
-0.70
-0.30
0.14
0.46
0.51
0.28
-0.13
-0.56
-0.88
-0.98
-0.89
-0.62
-0.22
0.24
0.65
0.89
0.88
0.62
0.22
-0.16
-0.33
-0.24
0.04
0.38
0.59
0.60
0.45
0.29
0.23
0.30
0.42
0.49
0.43
0.26
0.09
-0.01
0.02
0.10
0.12
0.02
-0.16
-0.32
-0.35
-0.23
-0.01
0.19
0.31
0.34
0.36
0.44
0.55
0.61
0.50
0.17
-0.29
-0.74
-0.98
-0.95
-0.68
-0.31
-0.00
0.15
0.15
0.06
-0.02
-0.02
0.05
0.16
0.28
0.37
0.42
0.41
0.34
0.21
0.04
-0.12
-0.22
-0.23
-0.20
-0.18
-0.22
-0.34
-0.47
-0.53
-0.48
-0.36
-0.26
-0.26
-0.36
-0.49
-0.54
-0.43
-0.22
-0.01
0.07
-0.02
-0.22
-0.37
-0.34
-0.09
0.31
0.72
1.05
1.24
1.29
1.22
1.07
0.83
0.54
0.26
0.07
0.00
0.06
0.19
0.29
0.32
0.23
0.04
-0.23
-0.55
-0.84
-1.03
-1.05
-0.88
-0.57
-0.20
0.11
0.30
0.37
0.35
0.33
0.33
0.35
0.37
0.36
0.29
0.20
0.14
0.14
0.25
0.41
0.56
0.62
0.54
0.38
0.19
0.06
-0.01
-0.05
-0.10
-0.19
-0.34
-0.51
-0.70
-0.88
-1.03
-1.14
-1.18
-1.14
-1.02
-0.83
-0.62
-0.41
-0.18
0.06
0.26
0.37
0.36
0.22
0.01
-0.20
-0.34
-0.36
-0.28
-0.11
0.11
0.36
0.60
0.76
0.79
0.66
0.38
0.05
-0.20
-0.26
-0.09
0.19
0.47
0.61
0.58
0.43
0.26
0.12
0.03
-0.04
-0.14
-0.24
-0.33
-0.36
-0.29
-0.17
-0.02
0.10
0.17
0.18
0.17
0.16
0.16
0.16
0.16
0.13
0.09
0.07
0.10
0.19
0.32
0.41
0.36
0.14
-0.22
-0.60
-0.85
-0.90
-0.73
-0.42
-0.11
0.09
0.13
0.03
-0.15
-0.35
-0.50
-0.59
-0.61
-0.55
-0.40
-0.18
0.06
0.29
0.46
0.53
0.51
0.41
0.29
0.20
0.19
0.28
0.44
0.59
0.68
0.66
0.55
0.37
0.16
-0.10
-0.43
-0.81
-1.17
-1.37
-1.27
-0.87
-0.29
0.27
0.63
0.67
0.45
0.15
-0.09
-0.17
-0.08
0.07
0.16
0.13
0.00
-0.14
-0.23
-0.22
-0.14
-0.03
0.07
0.16
0.26
0.39
0.54
0.64
0.63
0.48
0.25
0.04
-0.05
0.07
0.38
0.77
1.09
1.20
1.00
0.54
-0.06
-0.59
-0.90
-0.96
-0.84
-0.65
-0.50
-0.38
-0.22
0.02
0.34
0.61
0.73
0.64
0.39
0.12
-0.00
0.06
0.26
0.43
0.44
0.23
-0.12
-0.47
-0.69
-0.73
-0.65
-0.56
-0.56
-0.67
-0.86
-1.02
-1.05
-0.92
-0.67
-0.36
-0.09
0.11
0.24
0.34
0.43
0.51
0.57
0.55
0.43
0.25
0.11
0.08
0.21
0.45
0.68
0.76
0.63
0.30
-0.08
-0.39
-0.51
-0.43
-0.20
0.09
0.33
0.48
0.52
0.50
0.46
0.42
0.39
0.33
0.21
0.03
-0.21
-0.49
-0.80
-1.11
-1.40
-1.59
-1.58
-1.29
-0.79
-0.21
0.23
0.36
0.19
-0.13
-0.38
-0.41
-0.20
0.14
0.47
0.71
0.89
1.08
1.28
1.41
1.37
1.08
0.58
0.07
-0.27
-0.30
-0.05
0.33
0.65
0.76
0.63
0.31
-0.10
-0.50
-0.82
-1.01
-1.04
-0.96
-0.81
-0.68
-0.63
-0.69
-0.81
-0.92
-0.91
-0.74
-0.42
-0.04
0.28
0.45
0.42
0.23
-0.03
-0.27
-0.40
-0.40
-0.27
-0.04
0.24
0.56
0.87
1.11
1.19
1.05
0.70
0.24
-0.20
-0.46
-0.48
-0.31
-0.07
0.12
0.20
0.17
0.09
0.03
0.02
0.07
0.14
0.23
0.34
0.49
0.72
0.99
1.24
1.38
1.33
1.10
0.73
0.34
0.00
-0.21
-0.31
-0.32
-0.27
-0.23
-0.23
-0.31
-0.48
-0.71
-0.91
-0.96
-0.78
-0.37
0.19
0.76
1.19
1.38
1.26
0.85
0.22
-0.51
-1.18
-1.62
-1.74
-1.54
-1.11
-0.63
-0.27
-0.14
-0.21
-0.40
-0.55
-0.59
-0.50
-0.35
-0.24
-0.23
-0.31
-0.41
-0.45
-0.36
-0.17
0.05
0.19
0.22
0.15
0.07
0.06
0.14
0.25
0.31
0.24
0.04
-0.17
-0.25
-0.13
0.21
0.65
1.06
1.29
1.31
1.12
0.78
0.38
-0.03
-0.36
-0.57
-0.62
-0.50
-0.25
0.04
0.29
0.44
0.47
0.41
0.30
0.16
-0.02
-0.23
-0.43
-0.56
-0.54
-0.34
-0.04
0.27
0.46
0.50
0.43
0.33
0.27
0.22
0.12
-0.10
-0.39
-0.64
-0.68
-0.42
0.06
0.59
0.92
0.90
0.55
0.03
-0.45
-0.70
-0.68
-0.45
-0.17
0.04
0.14
0.15
0.16
0.24
0.41
0.62
0.80
0.87
0.79
0.55
0.23
-0.14
-0.47
-0.75
-0.95
-1.09
-1.18
-1.20
-1.12
-0.89
-0.52
-0.06
0.34
0.57
0.55
0.31
-0.02
-0.28
-0.36
-0.28
-0.13
-0.06
-0.11
-0.27
-0.45
-0.54
-0.50
-0.32
-0.09
0.12
0.27
0.31
0.26
0.16
0.06
0.02
0.07
0.22
0.44
0.69
0.89
0.97
0.90
0.66
0.31
-0.08
-0.38
-0.52
-0.46
-0.24
0.07
0.34
0.49
0.50
0.38
0.19
0.02
-0.06
-0.02
0.10
0.23
0.30
0.26
0.11
-0.11
-0.31
-0.44
-0.51
-0.53
-0.54
-0.53
-0.48
-0.35
-0.14
0.08
0.26
0.33
0.29
0.19
0.10
0.09
0.18
0.31
0.39
0.33
0.12
-0.18
-0.47
-0.66
-0.71
-0.67
-0.58
-0.47
-0.33
-0.13
0.15
0.45
0.65
0.69
0.55
0.32
0.12
0.06
0.15
0.35
0.55
0.68
0.63
0.37
-0.09
-0.67
-1.20
-1.53
-1.51
-1.15
-0.57
0.02
0.41
0.52
0.38
0.12
-0.11
-0.22
-0.20
-0.06
0.11
0.28
0.41
0.49
0.48
0.39
0.25
0.11
0.05
0.11
0.27
0.46
0.59
0.60
0.51
0.37
0.24
0.13
0.03
-0.10
-0.27
-0.44
-0.55
-0.53
-0.39
-0.16
0.06
0.19
0.21
0.16
0.07
-0.00
-0.03
-0.02
0.01
0.05
0.05
0.01
-0.07
-0.18
-0.28
-0.29
-0.19
0.02
0.28
0.48
0.56
0.48
0.26
-0.05
-0.35
-0.58
-0.69
-0.70
-0.64
-0.59
-0.60
-0.67
-0.77
-0.86
-0.90
-0.89
-0.85
-0.79
-0.68
-0.51
-0.26
0.03
0.32
0.55
0.72
0.81
0.82
0.72
0.50
0.19
-0.15
-0.40
-0.45
-0.26
0.12
0.57
0.96
1.23
1.34
1.34
1.25
1.08
0.83
0.51
0.18
-0.08
-0.20
-0.16
0.00
0.19
0.29
0.24
0.05
-0.19
-0.35
-0.36
-0.20
0.05
0.26
0.36
0.31
0.17
0.01
-0.09
-0.14
-0.16
-0.19
-0.24
-0.30
-0.32
-0.30
-0.25
-0.23
-0.25
-0.32
-0.35
-0.30
-0.12
0.17
0.49
0.75
0.85
0.77
0.51
0.15
-0.20
-0.49
-0.67
-0.75
-0.75
-0.69
-0.56
-0.34
-0.05
0.25
0.44
0.46
0.27
-0.04
-0.32
-0.43
-0.31
0.02
0.45
0.83
1.05
1.04
0.79
0.33
-0.25
-0.82
-1.21
-1.30
-1.06
-0.58
-0.08
0.21
0.18
-0.14
-0.58
-0.93
-1.03
-0.87
-0.53
-0.14
0.18
0.40
0.55
0.66
0.75
0.81
0.80
0.73
0.58
0.40
0.19
-0.02
-0.25
-0.49
-0.69
-0.79
-0.70
-0.41
0.03
0.48
0.82
0.91
0.75
0.40
0.01
-0.27
-0.34
-0.16
0.21
0.67
1.07
1.27
1.21
0.90
0.46
0.02
-0.32
-0.52
-0.61
-0.67
-0.72
-0.75
-0.71
-0.58
-0.38
-0.17
-0.06
-0.09
-0.23
-0.39
-0.47
-0.41
-0.26
-0.09
-0.03
-0.13
-0.35
-0.63
-0.84
-0.90
-0.78
-0.51
-0.17
0.15
0.36
0.47
0.50
0.53
0.62
0.79
1.03
1.29
1.48
1.54
1.39
1.01
0.43
-0.23
-0.79
-1.07
-1.01
-0.66
-0.21
0.14
0.29
0.23
0.07
-0.08
-0.16
-0.17
-0.15
-0.15
-0.16
-0.19
-0.20
-0.17
-0.11
-0.01
0.10
0.23
0.33
0.35
0.26
0.02
-0.32
-0.70
-1.03
-1.21
-1.19
-0.96
-0.55
-0.05
0.44
0.80
0.99
0.99
0.86
0.68
0.53
0.45
0.42
0.40
0.34
0.25
0.12
0.02
-0.10
-0.25
-0.49
-0.79
-1.04
-1.12
-0.94
-0.55
-0.10
0.24
0.35
0.24
0.01
-0.22
-0.38
-0.47
-0.48
-0.42
-0.27
-0.02
0.27
0.49
0.54
0.41
0.20
0.04
0.07
0.32
0.68
1.00
1.10
0.93
0.55
0.11
-0.24
-0.39
-0.37
-0.29
-0.25
-0.33
-0.48
-0.59
-0.60
-0.48
-0.31
-0.17
-0.10
-0.08
-0.05
0.04
0.19
0.33
0.42
0.44
0.40
0.32
0.24
0.16
0.10
0.08
0.13
0.24
0.38
0.47
0.50
0.42
0.28
0.08
-0.10
-0.24
-0.33
-0.33
-0.26
-0.14
-0.02
0.07
0.09
0.03
-0.09
-0.23
-0.38
-0.51
-0.59
-0.61
-0.55
-0.45
-0.33
-0.28
-0.32
-0.44
-0.61
-0.75
-0.79
-0.73
-0.57
-0.36
-0.13
0.10
0.30
0.47
0.58
0.64
0.65
0.66
0.72
0.83
0.95
1.04
1.03
0.94
0.77
0.58
0.38
0.16
-0.13
-0.46
-0.81
-1.07
-1.18
-1.12
-0.92
-0.64
-0.33
-0.03
0.26
0.48
0.56
0.45
0.16
-0.19
-0.44
-0.44
-0.18
0.24
0.62
0.76
0.64
0.33
0.02
-0.14
-0.11
0.03
0.14
0.14
0.03
-0.09
-0.13
-0.05
0.09
0.20
0.22
0.13
-0.03
-0.19
-0.31
-0.39
-0.46
-0.55
-0.63
-0.66
-0.56
-0.29
0.09
0.50
0.80
0.92
0.83
0.58
0.24
-0.12
-0.46
-0.74
-0.93
-0.99
-0.88
-0.63
-0.28
0.09
0.37
0.50
0.44
0.22
-0.08
-0.35
-0.44
-0.25
0.22
0.84
1.40
1.70
1.62
1.21
0.63
0.06
-0.35
-0.56
-0.60
-0.54
-0.44
-0.31
-0.15
0.03
0.20
0.32
0.36
0.32
0.24
0.15
0.11
0.09
0.02
-0.14
-0.40
-0.71
-0.97
-1.08
-1.01
-0.82
-0.57
-0.35
-0.19
-0.09
-0.05
-0.08
-0.17
-0.30
-0.41
-0.45
-0.34
-0.12
0.16
0.39
0.53
0.56
0.52
0.45
0.38
0.30
0.18
0.04
-0.08
-0.12
-0.04
0.14
0.36
0.52
0.56
0.49
0.35
0.22
0.16
0.22
0.40
0.66
0.93
1.13
1.17
1.00
0.61
0.11
-0.34
-0.59
-0.55
-0.26
0.09
0.31
0.24
-0.10
-0.55
-0.88
-0.95
-0.75
-0.40
-0.09
0.10
0.16
0.17
0.20
0.25
0.27
0.15
-0.12
-0.47
-0.76
-0.87
-0.77
-0.51
-0.21
-0.01
0.02
-0.08
-0.21
-0.25
-0.14
0.08
0.31
0.44
0.43
0.33
0.24
0.25
0.35
0.44
0.41
0.22
-0.04
-0.26
-0.30
-0.16
0.06
0.20
0.15
-0.07
-0.35
-0.56
-0.61
-0.50
-0.31
-0.15
-0.08
-0.14
-0.28
-0.43
-0.54
-0.54
-0.42
-0.20
0.09
0.40
0.69
0.91
1.04
1.04
0.92
0.66
0.30
-0.10
-0.46
-0.71
-0.78
-0.68
-0.45
-0.17
0.05
0.16
0.16
0.11
0.09
0.15
0.25
0.35
0.38
0.36
0.32
0.30
0.30
0.27
0.16
-0.06
-0.31
-0.55
-0.71
-0.78
-0.81
-0.84
-0.83
-0.74
-0.50
-0.11
0.32
0.67
0.83
0.80
0.61
0.36
0.10
-0.15
-0.37
-0.55
-0.60
-0.43
0.00
0.63
1.28
1.75
1.86
1.60
1.08
0.47
-0.03
-0.33
-0.41
-0.35
-0.20
-0.02
0.15
0.30
0.38
0.34
0.17
-0.14
-0.51
-0.86
-1.14
-1.29
-1.33
-1.26
-1.10
-0.87
-0.61
-0.33
-0.09
0.07
0.18
0.26
0.36
0.49
0.63
0.69
0.65
0.51
0.34
0.25
0.26
0.34
0.39
0.29
0.03
-0.32
-0.63
-0.78
-0.70
-0.44
-0.07
0.26
0.47
0.48
0.31
-0.00
-0.39
-0.76
-1.01
-1.08
-0.93
-0.63
-0.26
0.05
0.23
0.25
0.18
0.15
0.23
0.44
0.72
0.96
1.03
0.90
0.63
0.32
0.10
0.02
0.06
0.18
0.28
0.32
0.23
0.02
-0.28
-0.58
-0.77
-0.77
-0.56
-0.22
0.14
0.39
0.45
0.32
0.05
-0.29
-0.64
-0.96
-1.22
-1.39
-1.45
-1.36
-1.14
-0.78
-0.34
0.15
0.64
1.06
1.32
1.37
1.18
0.79
0.31
-0.16
-0.51
-0.69
-0.68
-0.49
-0.14
0.28
0.65
0.83
0.74
0.41
-0.03
-0.35
-0.40
-0.15
0.28
0.68
0.88
0.83
0.65
0.47
0.38
0.39
0.39
0.31
0.11
-0.14
-0.33
-0.39
-0.30
-0.12
0.05
0.15
0.16
0.13
0.11
0.14
0.24
0.35
0.40
0.32
0.07
-0.28
-0.65
-0.90
-0.96
-0.80
-0.50
-0.15
0.16
0.36
0.42
0.34
0.14
-0.11
-0.33
-0.45
-0.42
-0.26
-0.05
0.13
0.23
0.22
0.16
0.07
-0.02
-0.10
-0.16
-0.16
-0.04
0.20
0.48
0.66
0.62
0.32
-0.14
-0.55
-0.76
-0.66
-0.34
0.05
0.34
0.43
0.32
0.12
-0.06
-0.14
-0.09
0.06
0.23
0.33
0.27
0.05
-0.29
-0.61
-0.80
-0.81
-0.67
-0.49
-0.40
-0.41
-0.48
-0.49
-0.36
-0.07
0.28
0.54
0.63
0.52
0.29
0.06
-0.11
-0.18
-0.18
-0.13
-0.06
0.03
0.16
0.32
0.47
0.52
0.45
0.26
-0.01
-0.23
-0.33
-0.27
-0.10
0.10
0.25
0.31
0.28
0.23
0.22
0.28
0.38
0.49
0.52
0.45
0.28
0.04
-0.24
-0.52
-0.75
-0.86
-0.80
-0.52
-0.08
0.42
0.80
0.95
0.83
0.51
0.12
-0.24
-0.49
-0.64
-0.68
-0.64
-0.49
-0.26
0.02
0.28
0.44
0.44
0.30
0.09
-0.11
-0.22
-0.23
-0.17
-0.08
0.00
0.07
0.15
0.28
0.44
0.60
0.69
0.66
0.55
0.39
0.23
0.09
-0.07
-0.28
-0.52
-0.71
-0.75
-0.60
-0.31
0.02
0.27
0.38
0.38
0.31
0.26
0.24
0.20
0.09
-0.07
-0.22
-0.26
-0.11
0.21
0.59
0.84
0.82
0.52
0.02
-0.51
-0.92
-1.13
-1.17
-1.09
-0.96
-0.78
-0.53
-0.20
0.13
0.37
0.44
0.32
0.08
-0.14
-0.22
-0.10
0.17
0.46
0.63
0.57
0.30
-0.08
-0.42
-0.59
-0.54
-0.35
-0.14
-0.02
-0.02
-0.11
-0.20
-0.25
-0.22
-0.14
-0.04
0.06
0.14
0.19
0.20
0.17
0.14
0.11
0.12
0.15
0.19
0.23
0.25
0.26
0.27
0.27
0.24
0.18
0.10
0.03
-0.01
-0.01
0.03
0.09
0.17
0.25
0.30
0.25
0.05
-0.28
-0.63
-0.83
-0.74
-0.32
0.30
0.87
1.15
1.03
0.59
0.02
-0.49
-0.83
-0.99
-1.04
-1.02
-0.92
-0.69
-0.28
0.25
0.79
1.19
1.35
1.25
0.98
0.68
0.48
0.45
0.55
0.69
0.76
0.68
0.44
0.10
-0.24
-0.54
-0.75
-0.87
-0.90
-0.84
-0.69
-0.48
-0.30
-0.23
-0.32
-0.53
-0.78
-0.93
-0.89
-0.67
-0.36
-0.07
0.11
0.17
0.16
0.19
0.29
0.45
0.62
0.72
0.73
0.65
0.53
0.40
0.24
0.03
-0.22
-0.48
-0.65
-0.64
-0.41
-0.01
0.40
0.66
0.64
0.33
-0.13
-0.58
-0.83
-0.81
-0.56
-0.22
0.08
0.25
0.30
0.28
0.27
0.32
0.36
0.34
0.23
0.05
-0.10
-0.12
0.00
0.17
0.25
0.15
-0.11
-0.37
-0.47
-0.32
0.02
0.37
0.54
0.45
0.18
-0.12
-0.28
-0.25
-0.10
0.05
0.14
0.14
0.09
0.05
0.01
-0.04
-0.12
-0.20
-0.22
-0.19
-0.11
-0.07
-0.15
-0.35
-0.59
-0.76
-0.77
-0.61
-0.36
-0.11
0.07
0.17
0.23
0.30
0.38
0.48
0.55
0.59
0.59
0.55
0.46
0.30
0.07
-0.18
-0.41
-0.53
-0.52
-0.38
-0.20
-0.04
0.03
0.01
-0.02
0.02
0.21
0.51
0.82
0.99
0.92
0.63
0.23
-0.11
-0.28
-0.30
-0.23
-0.18
-0.19
-0.25
-0.27
-0.21
-0.07
0.08
0.18
0.17
0.05
-0.12
-0.29
-0.42
-0.52
-0.62
-0.71
-0.76
-0.69
-0.46
-0.09
0.34
0.69
0.85
0.79
0.56
0.27
0.01
-0.18
-0.31
-0.45
-0.59
-0.70
-0.72
-0.59
-0.32
0.03
0.40
0.71
0.95
1.08
1.12
1.02
0.77
0.37
-0.13
-0.61
-0.94
-1.05
-0.92
-0.60
-0.19
0.26
0.69
1.04
1.26
1.29
1.13
0.82
0.44
0.12
-0.08
-0.15
-0.14
-0.11
-0.11
-0.14
-0.20
-0.25
-0.27
-0.25
-0.20
-0.16
-0.15
-0.20
-0.30
-0.40
-0.49
-0.57
-0.64
-0.74
-0.85
-0.92
-0.87
-0.67
-0.34
0.03
0.36
0.56
0.66
0.68
0.66
0.59
0.46
0.28
0.07
-0.10
-0.19
-0.20
-0.14
-0.04
0.06
0.14
0.20
0.22
0.20
0.17
0.14
0.12
0.09
0.00
-0.17
-0.40
-0.60
-0.64
-0.49
-0.20
0.10
0.27
0.24
0.07
-0.10
-0.13
0.05
0.38
0.74
1.03
1.17
1.16
1.02
0.80
0.52
0.20
-0.11
-0.37
-0.54
-0.63
-0.66
-0.66
-0.63
-0.59
-0.51
-0.41
-0.30
-0.21
-0.13
-0.03
0.09
0.20
0.23
0.14
-0.05
-0.25
-0.36
-0.31
-0.14
0.03
0.10
0.06
-0.01
-0.01
0.13
0.36
0.56
0.59
0.43
0.15
-0.08
-0.16
-0.06
0.10
0.20
0.13
-0.08
-0.35
-0.56
-0.63
-0.56
-0.35
-0.02
0.38
0.82
1.18
1.32
1.18
0.74
0.16
-0.38
-0.72
-0.81
-0.71
-0.54
-0.40
-0.32
-0.26
-0.17
-0.06
0.03
0.02
-0.12
-0.34
-0.52
-0.59
-0.54
-0.42
-0.32
-0.31
-0.36
-0.41
-0.37
-0.19
0.09
0.40
0.67
0.85
0.89
0.76
0.49
0.13
-0.20
-0.34
-0.20
0.17
0.63
0.98
1.09
0.93
0.61
0.27
-0.02
-0.24
-0.43
-0.61
-0.79
-0.90
-0.96
-0.96
-0.92
-0.85
-0.68
-0.40
-0.02
0.36
0.60
0.58
0.28
-0.18
-0.66
-0.98
-1.08
-0.96
-0.73
-0.48
-0.27
-0.09
0.10
0.33
0.59
0.84
1.00
1.05
0.99
0.87
0.73
0.58
0.43
0.30
0.20
0.16
0.17
0.23
0.29
0.32
0.33
0.34
0.33
0.26
0.09
-0.16
-0.45
-0.67
-0.73
-0.62
-0.38
-0.14
0.04
0.11
0.11
0.09
0.09
0.10
0.12
0.13
0.13
0.12
0.09
0.01
-0.11
-0.25
-0.35
-0.36
-0.24
-0.02
0.22
0.41
0.52
0.57
0.60
0.62
0.58
0.41
0.09
-0.30
-0.64
-0.80
-0.78
-0.64
-0.49
-0.37
-0.28
-0.17
-0.02
0.13
0.18
0.11
-0.04
-0.18
-0.22
-0.16
-0.10
-0.13
-0.28
-0.48
-0.62
-0.63
-0.55
-0.46
-0.41
-0.38
-0.32
-0.14
0.14
0.46
0.69
0.79
0.77
0.68
0.58
0.47
0.31
0.06
-0.24
-0.47
-0.51
-0.30
0.07
0.45
0.65
0.65
0.49
0.31
0.19
0.15
0.13
0.10
0.08
0.13
0.28
0.51
0.70
0.73
0.55
0.20
-0.17
-0.43
-0.51
-0.44
-0.29
-0.10
0.09
0.28
0.44
0.54
0.49
0.24
-0.21
-0.74
-1.19
-1.41
-1.30
-0.94
-0.47
-0.12
0.00
-0.10
-0.32
-0.47
-0.43
-0.19
0.14
0.42
0.55
0.51
0.39
0.29
0.30
0.42
0.57
0.63
0.51
0.24
-0.06
-0.24
-0.16
0.14
0.51
0.76
0.75
0.48
0.09
-0.24
-0.38
-0.33
-0.18
-0.08
-0.11
-0.25
-0.38
-0.37
-0.14
0.26
0.69
0.97
1.00
0.78
0.45
0.17
0.05
0.09
0.15
0.12
-0.09
-0.42
-0.74
-0.92
-0.87
-0.64
-0.31
0.02
0.26
0.38
0.37
0.22
-0.04
-0.37
-0.72
-1.02
-1.23
-1.35
-1.36
-1.26
-1.06
-0.73
-0.31
0.15
0.57
0.85
0.94
0.86
0.65
0.40
0.19
0.07
0.08
0.19
0.36
0.52
0.59
0.52
0.30
-0.05
-0.43
-0.76
-0.92
-0.87
-0.62
-0.21
0.26
0.68
0.96
1.03
0.90
0.62
0.31
0.06
-0.06
-0.05
0.07
0.27
0.47
0.64
0.72
0.68
0.52
0.28
0.03
-0.16
-0.23
-0.19
-0.11
-0.09
-0.19
-0.38
-0.60
-0.72
-0.70
-0.56
-0.40
-0.31
-0.35
-0.49
-0.66
-0.77
-0.73
-0.57
-0.33
-0.11
0.03
0.04
-0.10
-0.34
-0.59
-0.74
-0.70
-0.41
0.04
0.55
0.95
1.14
1.12
0.93
0.69
0.45
0.25
0.07
-0.09
-0.22
-0.26
-0.18
-0.00
0.22
0.38
0.39
0.23
-0.05
-0.33
-0.51
-0.52
-0.37
-0.15
0.08
0.23
0.32
0.37
0.41
0.46
0.49
0.44
0.29
0.04
-0.27
-0.58
-0.81
-0.89
-0.78
-0.50
-0.14
0.19
0.41
0.49
0.49
0.49
0.52
0.56
0.57
0.50
0.39
0.32
0.38
0.60
0.87
1.04
1.00
0.71
0.26
-0.17
-0.45
-0.52
-0.43
-0.28
-0.19
-0.21
-0.35
-0.53
-0.66
-0.69
-0.58
-0.35
-0.06
0.19
0.34
0.38
0.35
0.29
0.26
0.24
0.19
0.04
-0.22
-0.57
-0.92
-1.22
-1.40
-1.43
-1.31
-1.05
-0.69
-0.32
-0.03
0.11
0.09
0.02
-0.01
0.07
0.24
0.36
0.33
0.10
-0.23
-0.49
-0.55
-0.36
-0.01
0.36
0.62
0.75
0.80
0.83
0.86
0.83
0.67
0.37
0.01
-0.29
-0.38
-0.20
0.19
0.63
0.95
1.01
0.80
0.42
0.03
-0.22
-0.27
-0.14
0.04
0.15
0.09
-0.13
-0.46
-0.82
-1.13
-1.35
-1.42
-1.33
-1.05
-0.60
-0.03
0.55
1.03
1.32
1.39
1.28
1.08
0.85
0.66
0.52
0.41
0.28
0.09
-0.17
-0.46
-0.71
-0.89
-0.96
-0.95
-0.90
-0.84
-0.79
-0.71
-0.58
-0.39
-0.17
0.01
0.11
0.14
0.12
0.14
0.21
0.35
0.52
0.67
0.78
0.83
0.83
0.79
0.72
0.60
0.43
0.21
-0.00
-0.17
-0.23
-0.18
-0.04
0.12
0.22
0.21
0.09
-0.12
-0.34
-0.51
-0.60
-0.56
-0.43
-0.22
0.03
0.29
0.50
0.63
0.61
0.42
0.10
-0.27
-0.59
-0.73
-0.63
-0.33
0.09
0.52
0.84
0.98
0.92
0.67
0.28
-0.19
-0.63
-0.96
-1.10
-1.06
-0.87
-0.62
-0.36
-0.14
0.01
0.09
0.09
0.02
-0.07
-0.14
-0.13
-0.02
0.12
0.26
0.34
0.36
0.36
0.36
0.35
0.29
0.16
-0.01
-0.19
-0.29
-0.27
-0.11
0.17
0.51
0.83
1.02
1.01
0.76
0.29
-0.30
-0.87
-1.30
-1.54
-1.56
-1.41
-1.12
-0.72
-0.28
0.11
0.39
0.53
0.55
0.50
0.44
0.38
0.32
0.22
0.12
0.03
-0.01
-0.00
0.02
0.02
0.01
0.01
0.08
0.21
0.34
0.40
0.29
0.01
-0.39
-0.78
-1.04
-1.05
-0.75
-0.22
0.40
0.90
1.10
0.95
0.56
0.11
-0.19
-0.23
-0.04
0.26
0.54
0.72
0.78
0.75
0.66
0.51
0.27
-0.06
-0.46
-0.85
-1.13
-1.22
-1.11
-0.82
-0.48
-0.19
-0.02
0.02
-0.02
-0.08
-0.08
-0.02
0.06
0.12
0.12
0.08
0.03
0.01
0.05
0.13
0.23
0.29
0.31
0.27
0.21
0.17
0.18
0.21
0.24
0.20
0.07
-0.15
-0.42
-0.69
-0.92
-1.07
-1.11
-1.02
-0.79
-0.43
0.00
0.41
0.68
0.79
0.75
0.66
0.61
0.65
0.76
0.86
0.88
0.76
0.51
0.20
-0.08
-0.22
-0.22
-0.10
0.09
0.29
0.48
0.65
0.80
0.92
0.94
0.80
0.50
0.09
-0.31
-0.54
-0.56
-0.38
-0.12
0.10
0.16
0.08
-0.10
-0.27
-0.35
-0.31
-0.18
-0.02
0.10
0.16
0.16
0.12
0.04
-0.06
-0.20
-0.39
-0.61
-0.80
-0.89
-0.82
-0.58
-0.21
0.16
0.42
0.48
0.36
0.11
-0.16
-0.42
-0.65
-0.86
-1.02
-1.07
-0.94
-0.63
-0.23
0.13
0.30
0.25
-0.01
-0.35
-0.68
-0.91
-1.01
-0.97
-0.79
-0.49
-0.11
0.26
0.55
0.71
0.75
0.71
0.62
0.52
0.44
0.38
0.35
0.34
0.32
0.26
0.14
-0.05
-0.26
-0.42
-0.45
-0.28
0.07
0.55
1.02
1.38
1.52
1.42
1.13
0.77
0.45
0.25
0.20
0.26
0.35
0.42
0.43
0.36
0.21
-0.01
-0.29
-0.57
-0.77
-0.83
-0.73
-0.49
-0.17
0.11
0.27
0.25
0.07
-0.20
-0.44
-0.57
-0.57
-0.47
-0.35
-0.26
-0.20
-0.13
0.00
0.19
0.36
0.44
0.37
0.17
-0.06
-0.23
-0.27
-0.19
-0.07
0.01
0.01
-0.09
-0.24
-0.36
-0.42
-0.40
-0.33
-0.25
-0.19
-0.14
-0.07
0.04
0.19
0.32
0.38
0.32
0.16
-0.03
-0.19
-0.25
-0.22
-0.15
-0.09
-0.07
-0.08
-0.07
0.01
0.19
0.43
0.64
0.72
0.62
0.37
0.10
-0.04
0.00
0.14
0.22
0.11
-0.22
-0.61
-0.87
-0.82
-0.48
-0.03
0.31
0.37
0.13
-0.26
-0.66
-0.92
-1.01
-0.97
-0.84
-0.62
-0.30
0.09
0.49
0.80
0.92
0.80
0.48
0.08
-0.24
-0.41
-0.42
-0.33
-0.20
-0.11
-0.04
-0.00
0.04
0.10
0.15
0.19
0.23
0.29
0.40
0.54
0.68
0.79
0.84
0.85
0.85
0.90
0.97
1.01
0.94
0.69
0.30
-0.12
-0.43
-0.53
-0.42
-0.19
0.02
0.11
0.10
0.05
0.02
0.04
0.05
-0.01
-0.15
-0.35
-0.53
-0.64
-0.65
-0.59
-0.51
-0.45
-0.42
-0.43
-0.44
-0.41
-0.30
-0.11
0.09
0.24
0.25
0.09
-0.17
-0.42
-0.53
-0.47
-0.31
-0.16
-0.15
-0.32
-0.58
-0.80
-0.85
-0.67
-0.32
0.04
0.27
0.28
0.10
-0.15
-0.33
-0.36
-0.22
-0.01
0.20
0.33
0.40
0.46
0.54
0.67
0.80
0.86
0.78
0.54
0.18
-0.19
-0.40
-0.33
0.04
0.59
1.08
1.25
1.00
0.39
-0.31
-0.79
-0.85
-0.52
0.03
0.53
0.81
0.83
0.66
0.42
0.16
-0.08
-0.33
-0.56
-0.74
-0.79
-0.68
-0.44
-0.14
0.11
0.27
0.32
0.34
0.35
0.40
0.47
0.51
0.51
0.46
0.40
0.36
0.33
0.31
0.29
0.25
0.22
0.18
0.09
-0.08
-0.35
-0.67
-0.92
-0.99
-0.87
-0.63
-0.44
-0.40
-0.52
-0.71
-0.83
-0.80
-0.61
-0.35
-0.12
0.02
0.06
0.05
0.07
0.15
0.32
0.54
0.76
0.91
0.92
0.75
0.44
0.06
-0.26
-0.40
-0.33
-0.06
0.27
0.53
0.61
0.50
0.26
-0.01
-0.22
-0.31
-0.30
-0.21
-0.09
0.06
0.25
0.43
0.58
0.63
0.56
0.36
0.10
-0.14
-0.33
-0.43
-0.47
-0.51
-0.58
-0.70
-0.82
-0.88
-0.82
-0.66
-0.46
-0.31
-0.26
-0.28
-0.30
-0.25
-0.15
-0.05
-0.04
-0.16
-0.37
-0.55
-0.59
-0.46
-0.21
0.06
0.27
0.38
0.42
0.44
0.46
0.47
0.48
0.52
0.58
0.66
0.72
0.70
0.53
0.23
-0.13
-0.43
-0.59
-0.58
-0.46
-0.32
-0.21
-0.14
-0.09
-0.03
0.04
0.07
0.06
-0.00
-0.04
-0.01
0.09
0.22
0.32
0.36
0.39
0.43
0.54
0.66
0.71
0.59
0.30
-0.09
-0.47
-0.72
-0.82
-0.80
-0.75
-0.71
-0.66
-0.56
-0.37
-0.10
0.22
0.52
0.77
0.92
0.96
0.90
0.73
0.51
0.29
0.12
0.00
-0.09
-0.21
-0.38
-0.59
-0.75
-0.81
-0.72
-0.52
-0.30
-0.11
0.00
0.08
0.16
0.26
0.37
0.48
0.53
0.50
0.39
0.20
-0.05
-0.32
-0.52
-0.55
-0.36
0.01
0.46
0.83
1.02
1.00
0.82
0.57
0.32
0.08
-0.16
-0.35
-0.49
-0.52
-0.46
-0.37
-0.34
-0.40
-0.53
-0.66
-0.72
-0.66
-0.52
-0.34
-0.17
-0.03
0.06
0.09
0.06
-0.02
-0.11
-0.19
-0.27
-0.34
-0.41
-0.44
-0.35
-0.08
0.37
0.85
1.21
1.30
1.09
0.70
0.30
0.03
-0.07
-0.04
0.05
0.15
0.24
0.32
0.33
0.23
0.04
-0.17
-0.28
-0.21
0.03
0.31
0.48
0.42
0.18
-0.10
-0.26
-0.23
-0.05
0.15
0.25
0.20
0.06
-0.09
-0.19
-0.21
-0.20
-0.17
-0.14
-0.11
-0.09
-0.10
-0.17
-0.32
-0.53
-0.71
-0.79
-0.69
-0.43
-0.06
0.31
0.61
0.77
0.78
0.65
0.40
0.08
-0.25
-0.54
-0.70
-0.73
-0.61
-0.41
-0.18
0.03
0.21
0.36
0.48
0.57
0.61
0.56
0.43
0.28
0.16
0.15
0.23
0.38
0.48
0.47
0.28
-0.06
-0.47
-0.85
-1.08
-1.12
-0.99
-0.75
-0.51
-0.36
-0.32
-0.37
-0.45
-0.50
-0.46
-0.35
-0.18
0.00
0.19
0.35
0.49
0.56
0.56
0.47
0.30
0.13
-0.02
-0.05
0.05
0.28
0.57
0.82
0.94
0.86
0.61
0.25
-0.10
-0.36
-0.49
-0.53
-0.53
-0.52
-0.49
-0.43
-0.32
-0.20
-0.11
-0.10
-0.13
-0.18
-0.18
-0.09
0.08
0.30
0.56
0.79
0.97
1.04
0.96
0.74
0.46
0.21
0.07
0.04
0.05
-0.03
-0.25
-0.55
-0.77
-0.75
-0.43
0.07
0.55
0.82
0.82
0.64
0.44
0.34
0.37
0.45
0.47
0.36
0.14
-0.15
-0.43
-0.65
-0.77
-0.78
-0.68
-0.50
-0.29
-0.11
-0.03
-0.03
-0.09
-0.17
-0.21
-0.19
-0.12
-0.02
0.07
0.12
0.14
0.12
0.05
-0.04
-0.16
-0.30
-0.46
-0.63
-0.79
-0.87
-0.85
-0.69
-0.44
-0.19
-0.06
-0.10
-0.28
-0.49
-0.57
-0.42
-0.06
0.40
0.79
0.97
0.91
0.67
0.36
0.07
-0.15
-0.31
-0.42
-0.47
-0.42
-0.26
-0.03
0.19
0.32
0.29
0.13
-0.05
-0.14
-0.09
0.09
0.31
0.51
0.62
0.65
0.63
0.58
0.49
0.36
0.20
0.04
-0.04
-0.02
0.12
0.35
0.57
0.71
0.71
0.54
0.26
-0.07
-0.33
-0.45
-0.40
-0.26
-0.11
-0.06
-0.14
-0.31
-0.44
-0.42
-0.22
0.12
0.47
0.69
0.71
0.53
0.23
-0.10
-0.39
-0.58
-0.65
-0.61
-0.45
-0.20
0.09
0.33
0.44
0.37
0.13
-0.21
-0.53
-0.72
-0.73
-0.57
-0.32
-0.11
0.00
0.01
-0.01
0.02
0.15
0.35
0.54
0.59
0.45
0.13
-0.26
-0.58
-0.74
-0.73
-0.63
-0.54
-0.53
-0.60
-0.66
-0.62
-0.43
-0.12
0.25
0.58
0.81
0.92
0.90
0.74
0.46
0.12
-0.22
-0.46
-0.51
-0.38
-0.10
0.22
0.49
0.68
0.80
0.87
0.90
0.87
0.73
0.47
0.14
-0.18
-0.42
-0.53
-0.53
-0.50
-0.46
-0.43
-0.37
-0.25
-0.09
0.04
0.08
-0.01
-0.18
-0.33
-0.37
-0.28
-0.11
0.07
0.17
0.17
0.07
-0.10
-0.27
-0.41
-0.45
-0.40
-0.28
-0.15
-0.07
-0.05
-0.09
-0.15
-0.17
-0.13
-0.05
-0.00
-0.02
-0.11
-0.22
-0.30
-0.29
-0.18
-0.01
0.14
0.24
0.25
0.24
0.24
0.31
0.43
0.55
0.61
0.61
0.59
0.57
0.58
0.58
0.52
0.37
0.17
-0.00
-0.11
-0.12
-0.11
-0.12
-0.18
-0.26
-0.29
-0.24
-0.13
-0.05
-0.09
-0.28
-0.54
-0.77
-0.84
-0.72
-0.45
-0.10
0.27
0.63
0.95
1.20
1.32
1.27
1.04
0.71
0.42
0.27
0.26
0.33
0.31
0.12
-0.22
-0.57
-0.76
-0.70
-0.37
0.08
0.50
0.75
0.78
0.62
0.37
0.11
-0.10
-0.25
-0.35
-0.41
-0.42
-0.34
-0.15
0.15
0.49
0.77
0.90
0.86
0.69
0.46
0.24
0.05
-0.12
-0.28
-0.40
-0.48
-0.50
-0.49
-0.48
-0.49
-0.50
-0.49
-0.47
-0.45
-0.45
-0.47
-0.48
-0.41
-0.23
0.04
0.33
0.56
0.69
0.73
0.71
0.63
0.48
0.23
-0.10
-0.43
-0.63
-0.63
-0.43
-0.15
0.08
0.13
0.00
-0.23
-0.44
-0.50
-0.42
-0.25
-0.11
-0.04
-0.06
-0.06
0.06
0.32
0.66
0.94
1.01
0.81
0.42
-0.05
-0.44
-0.73
-0.91
-1.04
-1.13
-1.16
-1.09
-0.94
-0.74
-0.59
-0.53
-0.59
-0.71
-0.80
-0.82
-0.70
-0.45
-0.12
0.25
0.58
0.79
0.86
0.82
0.71
0.57
0.42
0.24
0.04
-0.16
-0.28
-0.25
-0.04
0.31
0.70
0.99
1.09
0.97
0.69
0.34
0.05
-0.12
-0.16
-0.10
-0.02
0.01
-0.04
-0.14
-0.25
-0.33
-0.34
-0.31
-0.24
-0.16
-0.09
-0.01
0.06
0.11
0.17
0.24
0.33
0.45
0.59
0.66
0.62
0.40
0.03
-0.40
-0.76
-0.92
-0.82
-0.53
-0.15
0.14
0.25
0.16
-0.04
-0.27
-0.41
-0.46
-0.44
-0.42
-0.43
-0.45
-0.46
-0.41
-0.31
-0.20
-0.13
-0.13
-0.18
-0.24
-0.26
-0.25
-0.20
-0.09
0.06
0.26
0.49
0.70
0.82
0.81
0.67
0.46
0.28
0.17
0.14
0.15
0.16
0.13
0.06
-0.01
-0.05
-0.01
0.10
0.25
0.41
0.52
0.56
0.53
0.45
0.37
0.31
0.30
0.32
0.34
0.34
0.31
0.29
0.30
0.33
0.35
0.31
0.18
-0.02
-0.21
-0.28
-0.14
0.20
0.62
0.96
1.09
1.00
0.77
0.58
0.54
0.64
0.75
0.70
0.39
-0.17
-0.80
-1.30
-1.51
-1.40
-1.08
-0.71
-0.46
-0.39
-0.48
-0.66
-0.80
-0.85
-0.79
-0.66
-0.52
-0.41
-0.36
-0.35
-0.34
-0.30
-0.24
-0.14
-0.04
0.08
0.18
0.24
0.24
0.15
-0.03
-0.27
-0.49
-0.61
-0.60
-0.47
-0.30
-0.17
-0.14
-0.21
-0.28
-0.27
-0.12
0.19
0.57
0.89
1.03
0.97
0.70
0.30
-0.14
-0.55
-0.86
-1.03
-1.02
-0.86
-0.61
-0.36
-0.22
-0.26
-0.44
-0.64
-0.73
-0.64
-0.41
-0.14
0.02
0.01
-0.11
-0.25
-0.31
-0.28
-0.22
-0.21
-0.33
-0.55
-0.81
-0.98
-0.95
-0.68
-0.21
0.34
0.84
1.16
1.24
1.15
0.98
0.86
0.85
0.95
1.11
1.25
1.34
1.36
1.33
1.21
0.99
0.67
0.28
-0.10
-0.40
-0.57
-0.58
-0.46
-0.24
0.01
0.28
0.53
0.74
0.90
0.99
1.00
0.88
0.61
0.21
-0.29
-0.81
-1.22
-1.44
-1.44
-1.25
-0.93
-0.57
-0.22
0.11
0.37
0.55
0.59
0.45
0.14
-0.28
-0.71
-1.02
-1.14
-1.06
-0.84
-0.54
-0.26
0.00
0.23
0.42
0.54
0.60
0.59
0.55
0.52
0.53
0.58
0.64
0.63
0.53
0.32
0.06
-0.17
-0.33
-0.38
-0.32
-0.18
-0.02
0.09
0.12
0.01
-0.23
-0.53
-0.80
-0.97
-1.02
-0.95
-0.83
-0.68
-0.51
-0.29
-0.02
0.20
0.25
0.05
-0.35
-0.79
-1.02
-0.87
-0.36
0.30
0.82
1.01
0.84
0.47
0.13
0.03
0.18
0.52
0.86
1.06
1.07
0.92
0.71
0.51
0.34
0.19
0.03
-0.11
-0.19
-0.17
-0.06
0.09
0.20
0.18
0.03
-0.23
-0.50
-0.72
-0.81
-0.78
-0.62
-0.35
-0.02
0.30
0.53
0.62
0.56
0.40
0.22
0.11
0.11
0.20
0.31
0.40
0.41
0.33
0.19
0.00
-0.17
-0.31
-0.39
-0.41
-0.37
-0.27
-0.13
0.01
0.13
0.18
0.17
0.10
0.05
0.07
0.21
0.43
0.63
0.70
0.54
0.15
-0.35
-0.77
-0.94
-0.82
-0.48
-0.07
0.26
0.43
0.47
0.44
0.38
0.29
0.10
-0.22
-0.62
-1.00
-1.22
-1.18
-0.86
-0.34
0.22
0.70
1.00
1.11
1.08
0.96
0.81
0.63
0.42
0.17
-0.09
-0.31
-0.44
-0.46
-0.43
-0.41
-0.45
-0.57
-0.68
-0.72
-0.63
-0.41
-0.12
0.13
0.28
0.28
0.16
0.01
-0.13
-0.19
-0.19
-0.17
-0.18
-0.27
-0.42
-0.57
-0.64
-0.56
-0.30
0.06
0.37
0.53
0.45
0.19
-0.09
-0.25
-0.18
0.08
0.38
0.58
0.61
0.52
0.40
0.37
0.43
0.52
0.53
0.40
0.19
-0.02
-0.13
-0.09
0.06
0.25
0.39
0.46
0.46
0.44
0.42
0.42
0.42
0.38
0.30
0.17
0.06
0.03
0.12
0.28
0.39
0.34
0.05
-0.41
-0.89
-1.18
-1.17
-0.87
-0.43
-0.07
0.08
-0.03
-0.32
-0.64
-0.86
-0.95
-0.92
-0.87
-0.83
-0.83
-0.81
-0.68
-0.42
-0.05
0.32
0.55
0.56
0.34
0.01
-0.26
-0.32
-0.13
0.22
0.57
0.76
0.72
0.49
0.20
0.00
-0.04
0.04
0.15
0.19
0.14
0.02
-0.07
-0.08
-0.02
0.07
0.13
0.15
0.15
0.19
0.32
0.52
0.73
0.88
0.97
0.99
0.99
0.99
0.98
0.94
0.83
0.62
0.36
0.06
-0.22
-0.48
-0.72
-0.93
-1.07
-1.14
-1.12
-1.05
-0.96
-0.86
-0.74
-0.55
-0.28
0.05
0.37
0.58
0.60
0.44
0.19
-0.05
-0.18
-0.23
-0.23
-0.26
-0.32
-0.38
-0.39
-0.31
-0.17
-0.04
-0.01
-0.14
-0.37
-0.63
-0.81
-0.82
-0.63
-0.31
0.02
0.27
0.37
0.30
0.12
-0.09
-0.26
-0.35
-0.38
-0.37
-0.37
-0.37
-0.32
-0.17
0.11
0.45
0.77
0.96
0.97
0.81
0.58
0.41
0.37
0.47
0.66
0.83
0.89
0.82
0.64
0.43
0.24
0.11
0.05
0.04
0.07
0.13
0.22
0.32
0.40
0.42
0.36
0.23
0.04
-0.20
-0.49
-0.78
-1.02
-1.12
-1.02
-0.75
-0.37
-0.03
0.16
0.17
0.09
0.03
0.11
0.33
0.66
0.96
1.15
1.15
0.97
0.64
0.21
-0.24
-0.62
-0.89
-1.01
-0.99
-0.88
-0.72
-0.55
-0.39
-0.28
-0.23
-0.26
-0.36
-0.44
-0.42
-0.22
0.12
0.51
0.81
0.93
0.87
0.69
0.48
0.27
0.07
-0.14
-0.33
-0.40
-0.32
-0.08
0.21
0.42
0.46
0.30
0.04
-0.20
-0.32
-0.29
-0.13
0.07
0.28
0.43
0.51
0.52
0.43
0.25
0.00
-0.27
-0.50
-0.65
-0.66
-0.53
-0.29
-0.04
0.13
0.15
0.04
-0.16
-0.38
-0.56
-0.65
-0.65
-0.55
-0.34
-0.04
0.31
0.62
0.83
0.89
0.82
0.70
0.60
0.56
0.56
0.54
0.42
0.16
-0.22
-0.62
-0.93
-1.07
-1.01
-0.84
-0.66
-0.57
-0.58
-0.62
-0.61
-0.48
-0.25
0.01
0.20
0.26
0.22
0.14
0.08
0.05
0.05
0.05
0.07
0.14
0.28
0.43
0.51
0.45
0.25
-0.02
-0.23
-0.28
-0.18
-0.01
0.12
0.14
0.06
-0.03
-0.08
-0.06
-0.02
-0.00
-0.03
-0.04
0.03
0.18
0.39
0.53
0.51
0.31
-0.02
-0.36
-0.57
-0.58
-0.41
-0.13
0.13
0.28
0.25
0.12
-0.04
-0.11
-0.04
0.13
0.32
0.42
0.38
0.25
0.10
0.03
0.08
0.21
0.35
0.43
0.40
0.25
0.00
-0.30
-0.57
-0.74
-0.76
-0.67
-0.52
-0.38
-0.28
-0.17
-0.00
0.23
0.46
0.59
0.54
0.33
0.06
-0.13
-0.18
-0.11
-0.03
-0.02
-0.11
-0.21
-0.23
-0.14
0.04
0.22
0.36
0.43
0.43
0.37
0.20
-0.13
-0.62
-1.16
-1.56
-1.64
-1.34
-0.75
-0.09
0.39
0.58
0.50
0.22
-0.12
-0.45
-0.75
-0.96
-1.03
-0.90
-0.53
0.01
0.59
1.04
1.25
1.20
1.00
0.75
0.57
0.51
0.57
0.71
0.87
1.03
1.12
1.14
1.07
0.92
0.75
0.58
0.42
0.25
0.03
-0.27
-0.62
-0.94
-1.14
-1.15
-1.00
-0.74
-0.49
-0.31
-0.26
-0.32
-0.43
-0.53
-0.57
-0.54
-0.43
-0.29
-0.16
-0.07
-0.03
0.01
0.06
0.17
0.33
0.50
0.62
0.64
0.53
0.32
0.04
-0.23
-0.46
-0.59
-0.59
-0.47
-0.23
0.08
0.39
0.62
0.71
0.65
0.49
0.32
0.26
0.34
0.54
0.77
0.91
0.89
0.70
0.37
0.00
-0.33
-0.57
-0.68
-0.66
-0.51
-0.28
-0.02
0.20
0.32
0.31
0.21
0.07
-0.05
-0.13
-0.19
-0.26
-0.36
-0.46
-0.54
-0.54
-0.48
-0.37
-0.27
-0.22
-0.22
-0.22
-0.17
-0.05
0.11
0.28
0.41
0.47
0.47
0.43
0.39
0.34
0.28
0.20
0.09
-0.04
-0.18
-0.28
-0.33
-0.31
-0.25
-0.20
-0.19
-0.24
-0.29
-0.32
-0.28
-0.18
-0.08
-0.03
-0.06
-0.16
-0.25
-0.26
-0.16
0.04
0.28
0.49
0.61
0.59
0.45
0.23
-0.04
-0.30
-0.49
-0.57
-0.48
-0.25
0.04
0.28
0.35
0.20
-0.11
-0.46
-0.69
-0.71
-0.48
-0.07
0.41
0.86
1.14
1.19
1.01
0.66
0.27
-0.02
-0.13
-0.06
0.11
0.28
0.37
0.35
0.21
-0.00
-0.25
-0.50
-0.68
-0.78
-0.76
-0.64
-0.47
-0.32
-0.23
-0.23
-0.29
-0.33
-0.32
-0.23
-0.09
0.03
0.10
0.12
0.15
0.20
0.27
0.36
0.45
0.53
0.63
0.76
0.85
0.82
0.59
0.15
-0.38
-0.84
-1.09
-1.10
-0.94
-0.74
-0.62
-0.57
-0.54
-0.41
-0.13
0.27
0.64
0.83
0.78
0.52
0.19
-0.07
-0.19
-0.16
-0.03
0.12
0.27
0.41
0.52
0.57
0.49
0.29
-0.01
-0.33
-0.59
-0.74
-0.74
-0.62
-0.38
-0.04
0.34
0.68
0.88
0.89
0.71
0.39
0.03
-0.27
-0.44
-0.47
-0.39
-0.25
-0.12
-0.05
-0.09
-0.22
-0.43
-0.66
-0.85
-0.97
-0.97
-0.85
-0.62
-0.32
-0.03
0.17
0.23
0.16
0.03
-0.08
-0.13
-0.10
-0.05
0.01
0.06
0.17
0.38
0.71
1.09
1.42
1.61
1.59
1.39
1.09
0.77
0.48
0.25
0.08
-0.05
-0.13
-0.18
-0.16
-0.08
0.00
0.02
-0.09
-0.36
-0.71
-1.00
-1.08
-0.88
-0.46
-0.02
0.28
0.34
0.18
-0.05
-0.24
-0.34
-0.40
-0.50
-0.64
-0.78
-0.77
-0.54
-0.08
0.47
0.92
1.12
1.01
0.67
0.24
-0.11
-0.29
-0.29
-0.16
0.01
0.17
0.28
0.32
0.31
0.24
0.14
-0.01
-0.16
-0.28
-0.34
-0.30
-0.17
0.01
0.20
0.31
0.31
0.16
-0.10
-0.36
-0.52
-0.52
-0.35
-0.11
0.07
0.08
-0.09
-0.37
-0.60
-0.66
-0.49
-0.16
0.19
0.45
0.58
0.60
0.56
0.50
0.41
0.28
0.12
-0.00
0.01
0.18
0.44
0.65
0.63
0.35
-0.10
-0.49
-0.63
-0.45
-0.08
0.28
0.45
0.36
0.07
-0.26
-0.50
-0.58
-0.51
-0.38
-0.25
-0.15
-0.07
0.01
0.07
0.12
0.12
0.05
-0.08
-0.23
-0.36
-0.39
-0.28
-0.06
0.22
0.46
0.62
0.67
0.64
0.58
0.53
0.51
0.51
0.49
0.41
0.25
0.02
-0.23
-0.44
-0.56
-0.59
-0.58
-0.60
-0.69
-0.81
-0.85
-0.75
-0.51
-0.20
0.04
0.18
0.26
0.38
0.61
0.90
1.10
1.06
0.69
0.12
-0.43
-0.75
-0.72
-0.40
0.03
0.41
0.63
0.66
0.57
0.38
0.12
-0.21
-0.56
-0.84
-0.96
-0.85
-0.54
-0.18
0.09
0.14
-0.01
-0.24
-0.40
-0.38
-0.19
0.08
0.29
0.34
0.23
0.04
-0.15
-0.26
-0.32
-0.36
-0.40
-0.45
-0.46
-0.37
-0.21
-0.05
0.02
-0.06
-0.25
-0.41
-0.44
-0.28
0.01
0.26
0.37
0.30
0.11
-0.04
-0.05
0.13
0.43
0.73
0.91
0.92
0.79
0.58
0.41
0.34
0.39
0.53
0.70
0.82
0.80
0.63
0.34
0.03
-0.21
-0.30
-0.22
-0.05
0.14
0.27
0.28
0.19
0.05
-0.12
-0.29
-0.47
-0.61
-0.69
-0.67
-0.55
-0.35
-0.14
0.05
0.20
0.30
0.33
0.25
0.06
-0.21
-0.45
-0.56
-0.47
-0.18
0.20
0.51
0.62
0.50
0.20
-0.12
-0.34
-0.39
-0.27
-0.07
0.11
0.18
0.13
-0.01
-0.16
-0.23
-0.20
-0.07
0.13
0.36
0.55
0.62
0.52
0.22
-0.23
-0.68
-1.00
-1.09
-0.92
-0.61
-0.31
-0.16
-0.22
-0.44
-0.72
-0.89
-0.84
-0.52
-0.01
0.54
0.96
1.13
1.02
0.71
0.33
-0.01
-0.22
-0.28
-0.18
0.00
0.20
0.33
0.34
0.19
-0.06
-0.29
-0.40
-0.30
-0.01
0.39
0.76
0.96
0.94
0.71
0.37
-0.00
-0.33
-0.61
-0.87
-1.09
-1.22
-1.16
-0.84
-0.30
0.35
0.91
1.25
1.31
1.13
0.82
0.49
0.20
-0.03
-0.19
-0.31
-0.38
-0.41
-0.41
-0.37
-0.29
-0.17
-0.05
0.03
0.02
-0.05
-0.16
-0.22
-0.19
-0.09
0.03
0.10
0.06
-0.06
-0.22
-0.38
-0.53
-0.68
-0.80
-0.85
-0.78
-0.56
-0.24
0.08
0.29
0.36
0.30
0.22
0.19
0.23
0.33
0.43
0.52
0.61
0.73
0.85
0.88
0.73
0.35
-0.18
-0.69
-1.00
-1.03
-0.84
-0.56
-0.34
-0.22
-0.16
-0.05
0.16
0.45
0.71
0.85
0.85
0.76
0.67
0.63
0.64
0.61
0.47
0.20
-0.14
-0.42
-0.54
-0.43
-0.16
0.16
0.38
0.41
0.26
0.01
-0.22
-0.31
-0.25
-0.06
0.14
0.28
0.31
0.24
0.12
-0.00
-0.09
-0.13
-0.15
-0.14
-0.12
-0.10
-0.07
-0.02
0.06
0.15
0.22
0.23
0.18
0.10
0.02
-0.03
-0.07
-0.14
-0.27
-0.45
-0.60
-0.66
-0.59
-0.43
-0.24
-0.10
-0.03
-0.02
-0.04
-0.06
-0.07
-0.07
-0.03
0.05
0.19
0.34
0.45
0.48
0.43
0.32
0.17
0.02
-0.14
-0.29
-0.43
-0.53
-0.56
-0.54
-0.48
-0.43
-0.38
-0.36
-0.35
-0.38
-0.44
-0.50
-0.52
-0.45
-0.27
-0.04
0.15
0.23
0.17
0.04
-0.06
-0.08
0.01
0.15
0.31
0.44
0.54
0.62
0.64
0.61
0.51
0.35
0.18
0.05
0.00
0.05
0.16
0.31
0.46
0.58
0.68
0.72
0.71
0.64
0.52
0.36
0.18
-0.01
-0.21
-0.39
-0.55
-0.67
-0.71
-0.66
-0.53
-0.33
-0.10
0.13
0.34
0.52
0.64
0.68
0.62
0.49
0.36
0.31
0.37
0.49
0.54
0.39
0.03
-0.43
-0.79
-0.88
-0.65
-0.24
0.10
0.18
-0.06
-0.46
-0.82
-0.97
-0.86
-0.62
-0.38
-0.26
-0.26
-0.30
-0.30
-0.21
-0.07
0.04
0.05
-0.02
-0.14
-0.23
-0.26
-0.23
-0.17
-0.12
-0.08
-0.02
0.11
0.30
0.50
0.60
0.51
0.25
-0.08
-0.29
-0.28
-0.04
0.31
0.61
0.72
0.60
0.34
0.08
-0.09
-0.12
-0.05
0.07
0.20
0.30
0.34
0.28
0.11
-0.13
-0.34
-0.38
-0.21
0.11
0.42
0.56
0.44
0.09
-0.35
-0.73
-0.95
-0.98
-0.89
-0.71
-0.48
-0.25
-0.06
0.06
0.07
-0.04
-0.19
-0.32
-0.33
-0.22
-0.02
0.19
0.33
0.35
0.26
0.12
-0.01
-0.09
-0.13
-0.17
-0.21
-0.23
-0.14
0.11
0.49
0.89
1.16
1.23
1.13
0.98
0.89
0.92
0.97
0.94
0.75
0.43
0.08
-0.16
-0.24
-0.19
-0.10
-0.05
-0.08
-0.16
-0.24
-0.30
-0.36
-0.46
-0.65
-0.90
-1.13
-1.24
-1.15
-0.87
-0.49
-0.15
0.01
-0.02
-0.17
-0.32
-0.34
-0.19
0.06
0.28
0.37
0.26
-0.02
-0.37
-0.71
-0.94
-0.99
-0.84
-0.53
-0.14
0.24
0.51
0.63
0.61
0.48
0.27
0.03
-0.23
-0.48
-0.67
-0.74
-0.64
-0.37
-0.01
0.35
0.62
0.77
0.83
0.87
0.95
1.08
1.23
1.31
1.25
1.01
0.65
0.29
0.04
-0.00
0.15
0.41
0.66
0.78
0.71
0.49
0.19
-0.09
-0.33
-0.50
-0.63
-0.72
-0.75
-0.68
-0.48
-0.21
0.07
0.23
0.20
-0.01
-0.32
-0.61
-0.75
-0.69
-0.45
-0.14
0.11
0.20
0.11
-0.09
-0.29
-0.39
-0.39
-0.33
-0.27
-0.26
-0.26
-0.23
-0.13
0.00
0.10
0.09
-0.03
-0.21
-0.36
-0.37
-0.23
0.03
0.34
0.62
0.83
0.94
0.97
0.92
0.81
0.64
0.44
0.26
0.18
0.24
0.41
0.59
0.66
0.51
0.14
-0.36
-0.86
-1.21
-1.37
-1.34
-1.22
-1.06
-0.91
-0.78
-0.68
-0.63
-0.64
-0.67
-0.67
-0.59
-0.41
-0.19
0.00
0.10
0.10
0.07
0.09
0.22
0.45
0.65
0.72
0.57
0.28
-0.02
-0.18
-0.13
0.06
0.27
0.35
0.25
0.04
-0.11
-0.08
0.16
0.52
0.81
0.90
0.75
0.42
0.05
-0.24
-0.38
-0.37
-0.23
-0.01
0.25
0.51
0.68
0.70
0.54
0.24
-0.09
-0.35
-0.48
-0.44
-0.27
-0.05
0.19
0.38
0.49
0.47
0.33
0.07
-0.23
-0.46
-0.53
-0.41
-0.17
0.09
0.30
0.42
0.48
0.51
0.53
0.54
0.51
0.48
0.44
0.44
0.45
0.42
0.31
0.09
-0.18
-0.40
-0.49
-0.44
-0.32
-0.24
-0.26
-0.41
-0.65
-0.91
-1.13
-1.26
-1.28
-1.20
-1.04
-0.86
-0.69
-0.52
-0.35
-0.15
0.05
0.21
0.31
0.33
0.27
0.19
0.10
0.03
-0.03
-0.05
-0.01
0.10
0.26
0.41
0.45
0.36
0.19
0.05
0.05
0.22
0.46
0.62
0.57
0.32
-0.01
-0.25
-0.27
-0.08
0.19
0.38
0.39
0.25
0.06
-0.02
0.06
0.24
0.42
0.50
0.48
0.43
0.43
0.51
0.61
0.60
0.42
0.09
-0.29
-0.57
-0.66
-0.57
-0.43
-0.33
-0.34
-0.40
-0.43
-0.35
-0.20
-0.07
-0.07
-0.21
-0.43
-0.57
-0.54
-0.31
0.01
0.25
0.31
0.14
-0.15
-0.45
-0.61
-0.56
-0.30
0.12
0.60
1.00
1.19
1.10
0.73
0.20
-0.30
-0.60
-0.61
-0.37
0.02
0.40
0.67
0.79
0.76
0.60
0.35
0.05
-0.24
-0.47
-0.58
-0.55
-0.43
-0.31
-0.28
-0.40
-0.65
-0.93
-1.11
-1.05
-0.74
-0.26
0.27
0.68
0.88
0.89
0.77
0.64
0.56
0.53
0.55
0.56
0.53
0.46
0.35
0.21
0.03
-0.20
-0.49
-0.78
-0.97
-0.95
-0.68
-0.19
0.40
0.89
1.15
1.09
0.76
0.28
-0.19
-0.52
-0.65
-0.63
-0.52
-0.44
-0.45
-0.53
-0.62
-0.59
-0.37
0.03
0.51
0.91
1.11
1.07
0.81
0.44
0.09
-0.17
-0.30
-0.30
-0.24
-0.16
-0.08
-0.01
0.04
0.09
0.14
0.17
0.17
0.14
0.07
-0.02
-0.14
-0.28
-0.45
-0.63
-0.80
-0.94
-1.00
-0.94
-0.71
-0.30
0.24
0.80
1.21
1.33
1.11
0.63
0.07
-0.34
-0.47
-0.32
0.02
0.40
0.72
0.94
1.04
1.01
0.81
0.39
-0.21
-0.88
-1.43
-1.70
-1.63
-1.28
-0.86
-0.52
-0.37
-0.35
-0.33
-0.19
0.10
0.46
0.76
0.88
0.79
0.57
0.35
0.20
0.13
0.12
0.12
0.16
0.24
0.41
0.62
0.75
0.71
0.48
0.11
-0.28
-0.57
-0.68
-0.63
-0.48
-0.31
-0.17
-0.07
-0.02
0.01
0.01
-0.03
-0.14
-0.29
-0.46
-0.57
-0.57
-0.47
-0.32
-0.23
-0.27
-0.42
-0.57
-0.62
-0.46
-0.14
0.22
0.48
0.55
0.41
0.16
-0.08
-0.19
-0.12
0.14
0.51
0.87
1.07
1.04
0.77
0.35
-0.08
-0.36
-0.43
-0.30
-0.05
0.21
0.39
0.44
0.37
0.17
-0.12
-0.47
-0.84
-1.14
-1.27
-1.13
-0.75
-0.18
0.41
0.86
1.12
1.20
1.19
1.15
1.04
0.80
0.36
-0.22
-0.76
-1.04
-0.91
-0.43
0.19
0.68
0.84
0.64
0.21
-0.24
-0.55
-0.66
-0.61
-0.46
-0.27
-0.05
0.17
0.39
0.54
0.58
0.50
0.33
0.14
-0.02
-0.11
-0.14
-0.14
-0.12
-0.10
-0.08
-0.07
-0.07
-0.07
-0.04
0.04
0.15
0.26
0.32
0.30
0.22
0.12
0.04
0.02
0.04
0.07
0.09
0.07
0.04
0.00
-0.07
-0.18
-0.35
-0.53
-0.70
-0.80
-0.81
-0.72
-0.58
-0.41
-0.27
-0.17
-0.14
-0.17
-0.26
-0.40
-0.55
-0.70
-0.78
-0.74
-0.57
-0.27
0.08
0.40
0.60
0.65
0.56
0.37
0.15
-0.04
-0.13
-0.09
0.12
0.50
0.98
1.41
1.64
1.55
1.15
0.57
0.02
-0.31
-0.34
-0.12
0.21
0.49
0.59
0.48
0.20
-0.15
-0.45
-0.62
-0.60
-0.40
-0.12
0.15
0.34
0.40
0.37
0.29
0.19
0.06
-0.11
-0.31
-0.51
-0.63
-0.60
-0.40
-0.12
0.14
0.26
0.19
-0.03
-0.29
-0.46
-0.47
-0.34
-0.18
-0.10
-0.16
-0.28
-0.35
-0.25
0.01
0.30
0.46
0.40
0.14
-0.14
-0.28
-0.17
0.11
0.37
0.45
0.25
-0.13
-0.53
-0.77
-0.78
-0.62
-0.40
-0.24
-0.18
-0.19
-0.16
-0.01
0.27
0.62
0.88
0.94
0.75
0.36
-0.09
-0.47
-0.68
-0.69
-0.55
-0.34
-0.15
-0.02
0.04
0.06
0.06
0.06
0.10
0.16
0.26
0.39
0.54
0.67
0.76
0.79
0.75
0.67
0.56
0.45
0.30
0.08
-0.22
-0.59
-0.93
-1.12
-1.09
-0.85
-0.51
-0.16
0.10
0.27
0.39
0.50
0.63
0.72
0.74
0.64
0.46
0.25
0.07
-0.06
-0.11
-0.10
-0.05
0.02
0.09
0.12
0.09
-0.01
-0.16
-0.32
-0.46
-0.54
-0.58
-0.61
-0.65
-0.70
-0.72
-0.68
-0.53
-0.26
0.06
0.40
0.67
0.84
0.87
0.73
0.40
-0.09
-0.64
-1.09
-1.31
-1.22
-0.90
-0.49
-0.14
0.07
0.18
0.27
0.42
0.63
0.81
0.86
0.74
0.48
0.19
-0.02
-0.09
-0.04
0.05
0.07
-0.02
-0.20
-0.38
-0.45
-0.35
-0.07
0.30
0.63
0.78
0.71
0.45
0.13
-0.14
-0.22
-0.13
0.06
0.21
0.23
0.11
-0.06
-0.14
-0.04
0.23
0.55
0.73
0.68
0.42
0.06
-0.25
-0.42
-0.48
-0.50
-0.55
-0.58
-0.52
-0.30
0.10
0.54
0.84
0.87
0.60
0.15
-0.30
-0.57
-0.57
-0.30
0.13
0.59
0.92
1.04
0.94
0.66
0.28
-0.10
-0.41
-0.62
-0.77
-0.89
-0.98
-1.00
-0.92
-0.76
-0.57
-0.43
-0.39
-0.37
-0.27
-0.02
0.37
0.77
1.04
1.05
0.81
0.42
0.01
-0.32
-0.51
-0.58
-0.55
-0.42
-0.23
-0.04
0.12
0.19
0.17
0.08
-0.03
-0.12
-0.16
-0.18
-0.18
-0.16
-0.12
-0.04
0.07
0.19
0.28
0.32
0.33
0.32
0.33
0.33
0.27
0.08
-0.24
-0.59
-0.82
-0.79
-0.44
0.10
0.62
0.89
0.81
0.41
-0.13
-0.61
-0.87
-0.89
-0.75
-0.58
-0.49
-0.50
-0.55
-0.53
-0.36
-0.01
0.43
0.82
1.02
0.97
0.69
0.30
-0.10
-0.43
-0.62
-0.64
-0.48
-0.14
0.29
0.69
0.91
0.84
0.52
0.04
-0.40
-0.65
-0.64
-0.42
-0.08
0.24
0.48
0.58
0.55
0.42
0.23
0.04
-0.09
-0.14
-0.13
-0.08
-0.02
0.06
0.15
0.22
0.25
0.21
0.10
-0.03
-0.13
-0.14
-0.04
0.14
0.34
0.52
0.62
0.65
0.61
0.55
0.49
0.47
0.49
0.55
0.61
0.59
0.44
0.11
-0.37
-0.87
-1.26
-1.40
-1.25
-0.86
-0.38
0.03
0.25
0.26
0.09
-0.14
-0.35
-0.47
-0.46
-0.34
-0.13
0.09
0.26
0.31
0.24
0.08
-0.10
-0.21
-0.23
-0.16
-0.04
0.06
0.08
0.02
-0.10
-0.25
-0.37
-0.45
-0.48
-0.50
-0.49
-0.43
-0.28
-0.02
0.30
0.56
0.65
0.51
0.23
-0.04
-0.14
-0.02
0.24
0.50
0.62
0.57
0.36
0.10
-0.14
-0.29
-0.36
-0.34
-0.27
-0.20
-0.15
-0.16
-0.18
-0.18
-0.11
-0.02
0.02
-0.07
-0.29
-0.54
-0.68
-0.62
-0.39
-0.09
0.12
0.17
0.11
0.05
0.10
0.27
0.50
0.68
0.75
0.71
0.62
0.51
0.40
0.25
0.05
-0.18
-0.36
-0.40
-0.23
0.13
0.59
1.01
1.25
1.23
0.95
0.51
0.01
-0.44
-0.76
-0.96
-1.05
-1.05
-0.96
-0.81
-0.60
-0.38
-0.21
-0.13
-0.15
-0.27
-0.41
-0.54
-0.60
-0.56
-0.40
-0.14
0.16
0.44
0.59
0.59
0.45
0.23
0.04
-0.07
-0.07
-0.01
0.05
0.08
0.11
0.18
0.32
0.52
0.72
0.83
0.83
0.72
0.56
0.37
0.18
-0.02
-0.23
-0.41
-0.52
-0.55
-0.50
-0.39
-0.25
-0.12
-0.01
0.04
0.00
-0.11
-0.28
-0.40
-0.38
-0.17
0.19
0.57
0.81
0.82
0.62
0.32
0.05
-0.07
-0.06
0.01
0.05
-0.02
-0.20
-0.39
-0.51
-0.44
-0.17
0.29
0.83
1.32
1.63
1.65
1.37
0.84
0.19
-0.48
-1.02
-1.37
-1.51
-1.46
-1.26
-0.99
-0.72
-0.50
-0.36
-0.31
-0.32
-0.37
-0.36
-0.25
-0.01
0.32
0.61
0.70
0.49
-0.01
-0.63
-1.14
-1.34
-1.17
-0.73
-0.19
0.25
0.52
0.66
0.76
0.87
0.96
0.97
0.83
0.60
0.37
0.23
0.24
0.34
0.44
0.42
0.26
-0.01
-0.28
-0.42
-0.41
-0.26
-0.08
0.05
0.08
0.02
-0.08
-0.16
-0.16
-0.07
0.08
0.24
0.37
0.43
0.41
0.31
0.17
0.02
-0.10
-0.18
-0.22
-0.23
-0.22
-0.18
-0.10
0.03
0.17
0.26
0.26
0.17
0.04
-0.06
-0.10
-0.06
0.02
0.06
-0.02
-0.23
-0.52
-0.79
-0.91
-0.82
-0.55
-0.20
0.10
0.24
0.17
-0.05
-0.33
-0.56
-0.65
-0.57
-0.35
-0.04
0.28
0.55
0.73
0.80
0.74
0.59
0.38
0.16
-0.04
-0.19
-0.27
-0.28
-0.21
-0.10
0.02
0.11
0.12
0.01
-0.22
-0.54
-0.86
-1.04
-1.00
-0.71
-0.23
0.32
0.78
1.04
1.05
0.84
0.54
0.26
0.13
0.17
0.34
0.52
0.58
0.47
0.27
0.07
-0.02
0.02
0.10
0.10
-0.04
-0.29
-0.52
-0.61
-0.47
-0.17
0.17
0.44
0.57
0.58
0.50
0.36
0.15
-0.12
-0.44
-0.73
-0.88
-0.85
-0.66
-0.39
-0.16
-0.02
0.03
0.03
0.03
0.01
-0.03
-0.09
-0.13
-0.12
-0.04
0.08
0.15
0.13
-0.00
-0.17
-0.28
-0.28
-0.16
0.03
0.21
0.35
0.45
0.52
0.59
0.63
0.63
0.54
0.34
0.07
-0.21
-0.38
-0.39
-0.22
0.04
0.26
0.30
0.15
-0.12
-0.35
-0.41
-0.25
0.02
0.25
0.33
0.20
-0.09
-0.43
-0.74
-0.98
-1.10
-1.11
-1.00
-0.78
-0.46
-0.08
0.29
0.61
0.84
0.95
0.94
0.82
0.64
0.44
0.30
0.25
0.29
0.38
0.48
0.56
0.61
0.61
0.53
0.36
0.09
-0.21
-0.47
-0.60
-0.59
-0.48
-0.37
-0.32
-0.35
-0.40
-0.40
-0.34
-0.22
-0.13
-0.13
-0.21
-0.33
-0.41
-0.39
-0.26
-0.04
0.19
0.37
0.45
0.39
0.22
-0.00
-0.19
-0.28
-0.23
-0.07
0.14
0.33
0.45
0.49
0.47
0.42
0.36
0.31
0.24
0.15
0.06
-0.03
-0.11
-0.21
-0.36
-0.57
-0.78
-0.90
-0.84
-0.63
-0.33
-0.08
0.02
-0.05
-0.20
-0.31
-0.31
-0.22
-0.10
-0.01
0.04
0.10
0.22
0.42
0.65
0.82
0.87
0.81
0.66
0.48
0.33
0.21
0.14
0.11
0.07
0.02
-0.06
-0.18
-0.28
-0.34
-0.30
-0.21
-0.10
-0.05
-0.08
-0.17
-0.28
-0.35
-0.38
-0.40
-0.44
-0.50
-0.56
-0.57
-0.51
-0.39
-0.21
-0.01
0.21
0.47
0.73
0.96
1.07
1.01
0.78
0.41
0.01
-0.30
-0.45
-0.44
-0.32
-0.18
-0.08
-0.02
0.03
0.11
0.21
0.29
0.25
0.06
-0.21
-0.45
-0.53
-0.36
-0.00
0.44
0.81
1.01
1.04
0.92
0.73
0.52
0.35
0.24
0.21
0.20
0.14
-0.03
-0.32
-0.66
-0.92
-1.01
-0.90
-0.67
-0.45
-0.30
-0.26
-0.27
-0.26
-0.19
-0.07
0.06
0.14
0.17
0.15
0.12
0.11
0.11
0.12
0.07
-0.03
-0.21
-0.42
-0.59
-0.68
-0.66
-0.55
-0.42
-0.30
-0.22
-0.17
-0.14
-0.13
-0.16
-0.22
-0.28
-0.28
-0.18
0.06
0.42
0.80
1.11
1.25
1.20
0.99
0.75
0.59
0.58
0.69
0.82
0.85
0.73
0.47
0.17
-0.06
-0.15
-0.11
-0.03
0.02
-0.01
-0.12
-0.26
-0.36
-0.38
-0.34
-0.28
-0.28
-0.35
-0.46
-0.54
-0.49
-0.29
0.01
0.28
0.43
0.39
0.22
-0.00
-0.18
-0.28
-0.32
-0.37
-0.45
-0.54
-0.60
-0.59
-0.49
-0.34
-0.15
0.04
0.19
0.27
0.24
0.10
-0.11
-0.33
-0.50
-0.55
-0.45
-0.25
-0.01
0.19
0.28
0.26
0.18
0.11
0.12
0.20
0.31
0.38
0.38
0.34
0.34
0.46
0.69
0.95
1.11
1.08
0.86
0.56
0.28
0.10
0.01
-0.08
-0.22
-0.43
-0.64
-0.76
-0.74
-0.57
-0.33
-0.11
0.02
-0.01
-0.18
-0.43
-0.69
-0.88
-0.94
-0.86
-0.65
-0.35
-0.04
0.17
0.23
0.11
-0.13
-0.41
-0.61
-0.68
-0.60
-0.40
-0.13
0.19
0.54
0.91
1.22
1.41
1.40
1.18
0.81
0.40
0.03
-0.25
-0.42
-0.52
-0.54
-0.49
-0.34
-0.09
0.21
0.45
0.54
0.42
0.14
-0.19
-0.43
-0.48
-0.33
-0.08
0.16
0.32
0.37
0.32
0.21
0.07
-0.11
-0.27
-0.37
-0.36
-0.21
0.03
0.24
0.34
0.28
0.11
-0.10
-0.26
-0.35
-0.43
-0.53
-0.68
-0.85
-0.95
-0.90
-0.68
-0.31
0.10
0.43
0.62
0.65
0.57
0.48
0.42
0.39
0.36
0.31
0.24
0.17
0.15
0.18
0.22
0.21
0.11
-0.09
-0.32
-0.50
-0.56
-0.45
-0.22
0.09
0.42
0.71
0.91
0.98
0.92
0.72
0.45
0.18
-0.02
-0.12
-0.14
-0.14
-0.19
-0.31
-0.46
-0.57
-0.60
-0.54
-0.46
-0.40
-0.41
-0.47
-0.52
-0.50
-0.39
-0.18
0.08
0.34
0.58
0.75
0.80
0.71
0.47
0.12
-0.25
-0.53
-0.65
-0.57
-0.35
-0.06
0.21
0.38
0.43
0.36
0.26
0.19
0.24
0.40
0.61
0.77
0.79
0.67
0.44
0.22
0.07
0.01
-0.00
-0.02
-0.07
-0.13
-0.14
-0.05
0.12
0.29
0.34
0.20
-0.12
-0.51
-0.84
-1.02
-1.03
-0.94
-0.83
-0.72
-0.59
-0.38
-0.08
0.25
0.50
0.59
0.50
0.33
0.17
0.08
0.07
0.09
0.08
0.06
0.05
0.08
0.11
0.10
0.01
-0.13
-0.25
-0.25
-0.09
0.17
0.41
0.52
0.45
0.23
-0.05
-0.32
-0.53
-0.70
-0.84
-0.96
-1.04
-1.05
-0.98
-0.84
-0.65
-0.46
-0.30
-0.21
-0.21
-0.30
-0.42
-0.47
-0.36
-0.06
0.41
0.95
1.43
1.76
1.87
1.75
1.43
0.97
0.43
-0.08
-0.47
-0.66
-0.65
-0.46
-0.20
0.03
0.14
0.09
-0.09
-0.32
-0.51
-0.57
-0.46
-0.22
0.07
0.31
0.39
0.30
0.08
-0.20
-0.41
-0.46
-0.32
-0.04
0.28
0.53
0.64
0.64
0.61
0.61
0.67
0.74
0.76
0.69
0.55
0.44
0.40
0.41
0.39
0.25
-0.00
-0.31
-0.53
-0.59
-0.48
-0.30
-0.17
-0.19
-0.33
-0.53
-0.68
-0.75
-0.72
-0.61
-0.45
-0.22
0.06
0.33
0.52
0.55
0.40
0.10
-0.24
-0.52
-0.67
-0.68
-0.59
-0.44
-0.24
-0.00
0.29
0.60
0.84
0.94
0.83
0.53
0.14
-0.19
-0.33
-0.22
0.07
0.39
0.60
0.62
0.47
0.25
0.04
-0.12
-0.27
-0.44
-0.63
-0.80
-0.84
-0.69
-0.35
0.05
0.39
0.54
0.46
0.20
-0.15
-0.49
-0.77
-0.93
-0.97
-0.88
-0.66
-0.34
0.01
0.31
0.44
0.35
0.06
-0.35
-0.71
-0.89
-0.80
-0.47
0.02
0.52
0.87
1.01
0.91
0.68
0.45
0.33
0.36
0.46
0.53
0.46
0.25
0.01
-0.12
-0.06
0.14
0.35
0.41
0.28
0.07
-0.05
0.03
0.30
0.61
0.76
0.65
0.32
-0.07
-0.36
-0.50
-0.54
-0.57
-0.65
-0.73
-0.69
-0.45
-0.04
0.41
0.70
0.72
0.50
0.16
-0.14
-0.27
-0.22
-0.06
0.09
0.15
0.09
-0.05
-0.23
-0.37
-0.42
-0.38
-0.29
-0.23
-0.26
-0.44
-0.70
-0.95
-1.06
-0.96
-0.65
-0.20
0.23
0.53
0.64
0.54
0.32
0.06
-0.18
-0.37
-0.51
-0.60
-0.66
-0.66
-0.61
-0.49
-0.30
-0.06
0.21
0.46
0.63
0.68
0.63
0.54
0.48
0.53
0.70
0.89
1.01
1.00
0.83
0.59
0.36
0.21
0.16
0.20
0.27
0.34
0.37
0.33
0.24
0.10
-0.08
-0.28
-0.47
-0.65
-0.79
-0.84
-0.76
-0.58
-0.32
-0.04
0.22
0.48
0.76
1.06
1.32
1.43
1.31
0.97
0.51
0.08
-0.21
-0.36
-0.44
-0.54
-0.67
-0.77
-0.76
-0.60
-0.38
-0.23
-0.28
-0.54
-0.91
-1.23
-1.35
-1.21
-0.81
-0.25
0.39
0.99
1.44
1.63
1.49
1.06
0.47
-0.06
-0.33
-0.28
-0.00
0.30
0.41
0.24
-0.12
-0.49
-0.65
-0.52
-0.16
0.25
0.54
0.61
0.47
0.25
0.02
-0.15
-0.28
-0.42
-0.58
-0.70
-0.71
-0.56
-0.28
0.01
0.19
0.15
-0.12
-0.51
-0.87
-1.07
-1.04
-0.79
-0.39
0.06
0.45
0.67
0.67
0.47
0.11
-0.30
-0.64
-0.83
-0.81
-0.59
-0.21
0.22
0.59
0.80
0.81
0.64
0.38
0.13
-0.02
-0.03
0.07
0.18
0.21
0.10
-0.16
-0.51
-0.81
-0.91
-0.75
-0.32
0.25
0.79
1.18
1.35
1.36
1.26
1.10
0.89
0.60
0.23
-0.16
-0.44
-0.51
-0.30
0.10
0.53
0.78
0.77
0.50
0.11
-0.22
-0.39
-0.39
-0.30
-0.22
-0.21
-0.25
-0.31
-0.36
-0.39
-0.46
-0.56
-0.68
-0.74
-0.66
-0.43
-0.09
0.24
0.48
0.58
0.57
0.48
0.34
0.16
-0.08
-0.38
-0.69
-0.92
-0.96
-0.76
-0.38
0.09
0.47
0.66
0.61
0.36
0.01
-0.32
-0.51
-0.53
-0.38
-0.16
0.01
0.04
-0.08
-0.25
-0.34
-0.23
0.07
0.44
0.72
0.81
0.67
0.40
0.09
-0.18
-0.40
-0.58
-0.74
-0.82
-0.78
-0.59
-0.27
0.08
0.36
0.52
0.52
0.40
0.23
0.12
0.14
0.29
0.52
0.70
0.77
0.70
0.55
0.40
0.30
0.23
0.17
0.10
0.05
0.09
0.25
0.51
0.73
0.79
0.59
0.17
-0.35
-0.81
-1.07
-1.09
-0.92
-0.66
-0.40
-0.20
-0.08
-0.03
-0.03
-0.08
-0.20
-0.38
-0.60
-0.76
-0.76
-0.55
-0.11
0.46
0.99
1.32
1.33
1.04
0.56
0.05
-0.33
-0.53
-0.55
-0.45
-0.24
0.04
0.37
0.69
0.90
0.88
0.59
0.13
-0.36
-0.69
-0.73
-0.51
-0.14
0.22
0.45
0.51
0.44
0.33
0.24
0.19
0.15
0.08
-0.05
-0.25
-0.47
-0.67
-0.81
-0.90
-0.97
-1.06
-1.17
-1.25
-1.25
-1.10
-0.80
-0.41
0.01
0.37
0.62
0.75
0.76
0.68
0.54
0.42
0.35
0.34
0.37
0.39
0.37
0.34
0.33
0.37
0.44
0.46
0.36
0.13
-0.14
-0.35
-0.44
-0.41
-0.37
-0.40
-0.51
-0.61
-0.58
-0.33
0.08
0.50
0.77
0.80
0.64
0.43
0.29
0.27
0.30
0.32
0.24
0.10
-0.03
-0.07
-0.04
-0.01
-0.08
-0.30
-0.60
-0.87
-0.98
-0.86
-0.55
-0.15
0.19
0.36
0.33
0.14
-0.09
-0.24
-0.26
-0.12
0.12
0.37
0.56
0.63
0.55
0.31
-0.05
-0.45
-0.78
-0.92
-0.81
-0.46
0.02
0.50
0.85
0.99
0.94
0.79
0.61
0.49
0.47
0.55
0.70
0.85
0.91
0.83
0.58
0.20
-0.18
-0.45
-0.55
-0.48
-0.34
-0.22
-0.14
-0.10
-0.07
-0.03
-0.03
-0.14
-0.35
-0.62
-0.82
-0.84
-0.66
-0.36
-0.06
0.12
0.15
0.09
0.03
0.04
0.13
0.26
0.37
0.43
0.39
0.24
0.00
-0.28
-0.53
-0.70
-0.73
-0.65
-0.49
-0.32
-0.19
-0.08
0.01
0.11
0.19
0.23
0.17
0.04
-0.14
-0.27
-0.31
-0.23
-0.06
0.14
0.30
0.40
0.41
0.36
0.27
0.19
0.13
0.12
0.12
0.11
0.03
-0.14
-0.37
-0.56
-0.61
-0.49
-0.22
0.09
0.34
0.47
0.50
0.49
0.52
0.60
0.66
0.65
0.52
0.29
0.02
-0.19
-0.28
-0.20
0.03
0.34
0.64
0.80
0.74
0.45
0.03
-0.40
-0.71
-0.83
-0.78
-0.61
-0.40
-0.20
-0.07
-0.01
-0.05
-0.18
-0.38
-0.59
-0.76
-0.84
-0.82
-0.71
-0.57
-0.43
-0.31
-0.24
-0.21
-0.24
-0.31
-0.39
-0.43
-0.37
-0.21
0.04
0.32
0.56
0.70
0.74
0.71
0.67
0.65
0.67
0.71
0.77
0.85
0.92
0.94
0.84
0.56
0.13
-0.38
-0.83
-1.08
-1.06
-0.82
-0.45
-0.11
0.11
0.17
0.12
0.07
0.09
0.17
0.24
0.21
-0.01
-0.39
-0.80
-1.09
-1.14
-0.92
-0.52
-0.08
0.30
0.55
0.65
0.63
0.53
0.39
0.27
0.22
0.28
0.44
0.60
0.68
0.62
0.41
0.12
-0.18
-0.40
-0.53
-0.58
-0.57
-0.54
-0.47
-0.37
-0.21
-0.03
0.12
0.19
0.14
-0.01
-0.17
-0.23
-0.10
0.20
0.58
0.88
0.97
0.80
0.40
-0.09
-0.54
-0.84
-0.94
-0.86
-0.64
-0.36
-0.05
0.24
0.49
0.66
0.69
0.57
0.29
-0.07
-0.41
-0.60
-0.59
-0.37
-0.03
0.31
0.54
0.58
0.43
0.17
-0.13
-0.37
-0.51
-0.55
-0.53
-0.49
-0.46
-0.42
-0.34
-0.19
0.05
0.33
0.59
0.76
0.84
0.82
0.73
0.59
0.39
0.17
-0.03
-0.18
-0.25
-0.24
-0.21
-0.17
-0.14
-0.11
-0.04
0.10
0.29
0.45
0.49
0.34
0.03
-0.36
-0.66
-0.74
-0.56
-0.22
0.12
0.28
0.18
-0.12
-0.47
-0.69
-0.67
-0.41
-0.02
0.34
0.56
0.57
0.41
0.14
-0.13
-0.31
-0.34
-0.20
0.03
0.28
0.44
0.47
0.36
0.17
-0.02
-0.15
-0.18
-0.16
-0.13
-0.14
-0.19
-0.23
-0.19
-0.03
0.23
0.47
0.55
0.38
-0.03
-0.51
-0.90
-1.03
-0.89
-0.56
-0.20
0.06
0.19
0.22
0.20
0.20
0.21
0.23
0.23
0.21
0.20
0.17
0.12
0.01
-0.17
-0.40
-0.61
-0.71
-0.65
-0.40
-0.02
0.40
0.75
0.97
1.03
0.96
0.86
0.81
0.87
1.04
1.24
1.35
1.30
1.06
0.68
0.27
-0.10
-0.40
-0.65
-0.90
-1.16
-1.38
-1.49
-1.43
-1.21
-0.91
-0.66
-0.50
-0.43
-0.38
-0.26
-0.08
0.12
0.26
0.30
0.27
0.22
0.17
0.11
0.02
-0.12
-0.27
-0.37
-0.36
-0.24
-0.10
-0.03
-0.05
-0.12
-0.13
0.02
0.34
0.76
1.15
1.36
1.31
1.00
0.52
0.02
-0.37
-0.56
-0.55
-0.39
-0.21
-0.10
-0.08
-0.14
-0.21
-0.26
-0.29
-0.35
-0.44
-0.54
-0.58
-0.50
-0.30
-0.04
0.19
0.34
0.40
0.43
0.47
0.51
0.51
0.41
0.19
-0.07
-0.29
-0.38
-0.32
-0.20
-0.12
-0.19
-0.41
-0.67
-0.81
-0.71
-0.39
0.03
0.40
0.59
0.58
0.45
0.34
0.31
0.38
0.44
0.42
0.27
0.06
-0.13
-0.20
-0.14
-0.01
0.07
-0.01
-0.25
-0.58
-0.82
-0.85
-0.63
-0.25
0.15
0.45
0.59
0.59
0.50
0.34
0.11
-0.15
-0.37
-0.44
-0.28
0.08
0.50
0.81
0.87
0.70
0.41
0.13
-0.04
-0.12
-0.17
-0.29
-0.48
-0.68
-0.79
-0.72
-0.44
-0.02
0.39
0.67
0.71
0.53
0.21
-0.10
-0.27
-0.25
-0.08
0.14
0.32
0.44
0.52
0.62
0.73
0.79
0.71
0.43
-0.02
-0.53
-0.93
-1.10
-1.02
-0.74
-0.40
-0.10
0.11
0.23
0.26
0.22
0.11
-0.02
-0.14
-0.18
-0.11
0.05
0.24
0.35
0.32
0.16
-0.09
-0.38
-0.64
-0.83
-0.96
-0.98
-0.90
-0.70
-0.39
-0.03
0.30
0.52
0.57
0.47
0.28
0.07
-0.06
-0.05
0.12
0.45
0.84
1.18
1.35
1.27
0.96
0.54
0.15
-0.08
-0.10
0.01
0.14
0.18
0.11
-0.03
-0.15
-0.20
-0.20
-0.22
-0.33
-0.55
-0.77
-0.89
-0.79
-0.48
-0.08
0.24
0.37
0.30
0.13
-0.02
-0.07
-0.01
0.07
0.07
-0.01
-0.17
-0.34
-0.48
-0.57
-0.60
-0.58
-0.47
-0.29
-0.08
0.07
0.09
-0.02
-0.20
-0.33
-0.33
-0.20
-0.02
0.13
0.17
0.13
0.09
0.13
0.29
0.53
0.77
0.92
0.95
0.88
0.75
0.62
0.48
0.32
0.15
-0.01
-0.11
-0.11
-0.03
0.07
0.11
0.04
-0.12
-0.25
-0.26
-0.10
0.20
0.50
0.66
0.61
0.37
0.03
-0.30
-0.52
-0.64
-0.70
-0.76
-0.83
-0.91
-0.93
-0.85
-0.64
-0.33
0.01
0.28
0.39
0.31
0.08
-0.22
-0.48
-0.60
-0.54
-0.34
-0.06
0.21
0.44
0.60
0.68
0.68
0.58
0.40
0.17
-0.04
-0.17
-0.21
-0.15
-0.04
0.09
0.23
0.35
0.45
0.47
0.40
0.25
0.05
-0.12
-0.21
-0.23
-0.24
-0.26
-0.31
-0.34
-0.27
-0.08
0.21
0.48
0.64
0.63
0.50
0.36
0.29
0.32
0.36
0.29
0.04
-0.33
-0.67
-0.85
-0.81
-0.64
-0.48
-0.43
-0.51
-0.62
-0.64
-0.52
-0.26
0.04
0.31
0.49
0.57
0.57
0.48
0.32
0.10
-0.12
-0.32
-0.47
-0.58
-0.66
-0.70
-0.66
-0.53
-0.30
-0.03
0.20
0.31
0.28
0.15
-0.00
-0.10
-0.10
-0.02
0.08
0.18
0.25
0.33
0.48
0.72
1.00
1.22
1.31
1.22
1.00
0.77
0.63
0.60
0.62
0.58
0.41
0.14
-0.14
-0.32
-0.37
-0.35
-0.35
-0.45
-0.61
-0.72
-0.66
-0.40
0.01
0.40
0.63
0.62
0.41
0.10
-0.19
-0.40
-0.55
-0.69
-0.88
-1.12
-1.37
-1.52
-1.50
-1.28
-0.90
-0.47
-0.05
0.28
0.49
0.59
0.57
0.44
0.20
-0.10
-0.40
-0.62
-0.67
-0.55
-0.28
0.07
0.39
0.65
0.81
0.89
0.90
0.87
0.78
0.64
0.44
0.21
0.02
-0.07
-0.01
0.18
0.39
0.52
0.52
0.39
0.21
0.05
-0.05
-0.12
-0.21
-0.36
-0.57
-0.75
-0.82
-0.75
-0.53
-0.24
0.03
0.19
0.18
0.01
-0.22
-0.38
-0.39
-0.20
0.11
0.40
0.56
0.49
0.24
-0.08
-0.34
-0.44
-0.36
-0.14
0.12
0.32
0.39
0.33
0.18
0.02
-0.13
-0.27
-0.45
-0.69
-0.94
-1.10
-1.08
-0.86
-0.54
-0.27
-0.18
-0.27
-0.43
-0.48
-0.30
0.12
0.64
1.10
1.38
1.42
1.30
1.13
1.02
0.99
1.04
1.12
1.19
1.22
1.22
1.18
1.13
1.03
0.87
0.62
0.26
-0.18
-0.66
-1.07
-1.32
-1.34
-1.12
-0.75
-0.38
-0.15
-0.11
-0.26
-0.49
-0.69
-0.81
-0.82
-0.75
-0.63
-0.47
-0.24
0.07
0.44
0.82
1.10
1.19
1.05
0.72
0.29
-0.14
-0.45
-0.62
-0.68
-0.66
-0.65
-0.65
-0.63
-0.53
-0.31
-0.01
0.30
0.50
0.54
0.43
0.27
0.14
0.08
0.07
0.04
-0.06
-0.19
-0.30
-0.30
-0.18
0.02
0.18
0.20
0.03
-0.29
-0.68
-1.02
-1.23
-1.24
-1.07
-0.74
-0.30
0.18
0.63
0.97
1.08
0.92
0.52
0.02
-0.39
-0.55
-0.40
-0.01
0.42
0.70
0.75
0.57
0.31
0.12
0.09
0.23
0.46
0.65
0.69
0.57
0.33
0.05
-0.17
-0.27
-0.28
-0.24
-0.20
-0.19
-0.19
-0.16
-0.09
0.01
0.11
0.14
0.05
-0.17
-0.47
-0.78
-1.01
-1.09
-0.99
-0.72
-0.33
0.12
0.53
0.80
0.83
0.61
0.20
-0.24
-0.58
-0.70
-0.62
-0.44
-0.31
-0.33
-0.49
-0.70
-0.84
-0.81
-0.56
-0.14
0.36
0.79
1.03
1.00
0.73
0.32
-0.05
-0.28
-0.32
-0.22
-0.04
0.16
0.37
0.57
0.75
0.84
0.75
0.45
0.02
-0.41
-0.65
-0.59
-0.25
0.24
0.70
0.96
0.96
0.78
0.53
0.36
0.31
0.37
0.45
0.45
0.33
0.15
-0.00
-0.03
0.09
0.30
0.46
0.47
0.29
-0.02
-0.36
-0.61
-0.71
-0.67
-0.57
-0.50
-0.51
-0.57
-0.60
-0.52
-0.29
0.02
0.34
0.54
0.54
0.33
-0.02
-0.41
-0.77
-1.00
-1.07
-0.99
-0.79
-0.52
-0.24
-0.00
0.17
0.27
0.31
0.30
0.25
0.17
0.09
0.04
0.08
0.24
0.48
0.73
0.86
0.82
0.61
0.32
0.06
-0.08
-0.10
-0.05
-0.02
-0.06
-0.14
-0.22
-0.27
-0.30
-0.33
-0.39
-0.47
-0.49
-0.41
-0.22
0.02
0.25
0.36
0.34
0.22
0.06
-0.03
-0.03
0.06
0.19
0.27
0.26
0.17
0.08
0.04
0.11
0.25
0.37
0.37
0.23
-0.01
-0.22
-0.34
-0.33
-0.26
-0.19
-0.15
-0.12
-0.06
0.02
0.08
0.07
-0.04
-0.19
-0.24
-0.10
0.24
0.70
1.08
1.22
1.07
0.66
0.15
-0.33
-0.64
-0.75
-0.69
-0.55
-0.44
-0.43
-0.51
-0.59
-0.59
-0.44
-0.16
0.16
0.38
0.42
0.29
0.05
-0.19
-0.36
-0.43
-0.41
-0.33
-0.21
-0.08
0.06
0.19
0.31
0.42
0.54
0.65
0.73
0.74
0.63
0.40
0.12
-0.13
-0.29
-0.35
-0.36
-0.40
-0.51
-0.67
-0.81
-0.83
-0.74
-0.59
-0.47
-0.45
-0.53
-0.64
-0.68
-0.60
-0.40
-0.15
0.08
0.27
0.44
0.59
0.72
0.80
0.76
0.56
0.25
-0.06
-0.23
-0.18
0.10
0.53
0.93
1.17
1.21
1.09
0.93
0.78
0.68
0.55
0.35
0.09
-0.19
-0.40
-0.49
-0.49
-0.44
-0.39
-0.34
-0.27
-0.15
-0.03
0.05
0.03
-0.10
-0.29
-0.46
-0.54
-0.52
-0.45
-0.39
-0.36
-0.36
-0.34
-0.25
-0.10
0.06
0.17
0.16
0.01
-0.19
-0.36
-0.38
-0.25
-0.04
0.13
0.16
0.04
-0.15
-0.29
-0.28
-0.10
0.20
0.49
0.67
0.69
0.59
0.44
0.33
0.27
0.25
0.20
0.08
-0.15
-0.43
-0.69
-0.85
-0.87
-0.74
-0.49
-0.14
0.27
0.67
1.02
1.24
1.32
1.23
1.02
0.74
0.44
0.17
-0.03
-0.15
-0.21
-0.24
-0.27
-0.31
-0.33
-0.30
-0.24
-0.18
-0.18
-0.25
-0.40
-0.53
-0.59
-0.54
-0.38
-0.18
0.01
0.18
0.32
0.45
0.54
0.58
0.52
0.35
0.10
-0.19
-0.44
-0.58
-0.54
-0.32
0.04
0.45
0.76
0.86
0.73
0.38
-0.07
-0.50
-0.81
-0.90
-0.75
-0.40
0.03
0.39
0.52
0.35
-0.06
-0.52
-0.83
-0.80
-0.42
0.17
0.72
1.02
0.98
0.64
0.19
-0.20
-0.42
-0.47
-0.42
-0.34
-0.28
-0.23
-0.15
-0.05
0.06
0.11
0.06
-0.11
-0.35
-0.59
-0.74
-0.75
-0.60
-0.29
0.12
0.55
0.87
1.00
0.90
0.61
0.27
0.01
-0.10
-0.07
0.04
0.14
0.22
0.27
0.33
0.39
0.39
0.26
-0.02
-0.41
-0.79
-1.04
-1.08
-0.90
-0.59
-0.25
0.00
0.13
0.11
0.00
-0.12
-0.19
-0.18
-0.09
0.02
0.07
0.03
-0.09
-0.22
-0.27
-0.21
-0.06
0.10
0.20
0.23
0.21
0.18
0.19
0.21
0.22
0.21
0.23
0.32
0.53
0.77
0.93
0.87
0.56
0.08
-0.38
-0.66
-0.72
-0.62
-0.50
-0.43
-0.42
-0.37
-0.20
0.10
0.47
0.79
0.93
0.85
0.58
0.20
-0.20
-0.54
-0.74
-0.75
-0.56
-0.22
0.17
0.49
0.63
0.56
0.29
-0.12
-0.52
-0.79
-0.82
-0.60
-0.20
0.22
0.52
0.64
0.62
0.58
0.61
0.72
0.80
0.74
0.52
0.21
-0.06
-0.17
-0.11
0.04
0.13
0.09
-0.08
-0.27
-0.36
-0.30
-0.11
0.13
0.30
0.34
0.25
0.06
-0.15
-0.32
-0.42
-0.46
-0.45
-0.43
-0.42
-0.45
-0.51
-0.58
-0.61
-0.57
-0.45
-0.26
-0.07
0.11
0.25
0.39
0.53
0.65
0.69
0.60
0.37
0.09
-0.10
-0.11
0.05
0.26
0.37
0.29
0.06
-0.19
-0.33
-0.30
-0.19
-0.09
-0.10
-0.21
-0.33
-0.35
-0.24
-0.02
0.22
0.40
0.49
0.51
0.51
0.50
0.48
0.39
0.22
-0.04
-0.35
-0.61
-0.78
-0.80
-0.66
-0.39
-0.06
0.24
0.40
0.36
0.14
-0.17
-0.43
-0.53
-0.45
-0.25
-0.03
0.11
0.14
0.10
0.06
0.04
0.05
0.05
0.03
-0.01
0.00
0.11
0.32
0.56
0.75
0.79
0.62
0.28
-0.15
-0.54
-0.76
-0.76
-0.55
-0.25
0.00
0.11
0.08
0.01
0.01
0.16
0.41
0.63
0.67
0.46
0.03
-0.47
-0.88
-1.09
-1.07
-0.88
-0.62
-0.41
-0.31
-0.33
-0.44
-0.58
-0.69
-0.74
-0.72
-0.63
-0.48
-0.27
0.02
0.36
0.70
0.97
1.10
1.05
0.84
0.54
0.26
0.05
-0.05
-0.05
-0.01
-0.04
-0.17
-0.39
-0.63
-0.76
-0.70
-0.43
-0.05
0.30
0.48
0.44
0.24
0.03
-0.08
-0.02
0.15
0.34
0.45
0.45
0.34
0.21
0.14
0.18
0.37
0.67
1.02
1.32
1.50
1.50
1.35
1.13
0.89
0.69
0.53
0.35
0.12
-0.12
-0.33
-0.42
-0.36
-0.17
0.02
0.10
-0.02
-0.33
-0.72
-1.05
-1.20
-1.12
-0.87
-0.54
-0.24
-0.03
0.05
0.00
-0.16
-0.40
-0.69
-0.95
-1.10
-1.12
-0.98
-0.75
-0.50
-0.29
-0.16
-0.08
-0.03
0.06
0.19
0.37
0.58
0.77
0.90
0.91
0.74
0.36
-0.19
-0.82
-1.35
-1.58
-1.36
-0.69
0.23
1.11
1.63
1.62
1.12
0.36
-0.38
-0.86
-1.01
-0.88
-0.60
-0.30
-0.01
0.27
0.56
0.81
0.93
0.84
0.51
0.04
-0.43
-0.72
-0.75
-0.55
-0.25
0.01
0.13
0.12
0.06
0.08
0.22
0.44
0.61
0.59
0.32
-0.16
-0.68
-1.06
-1.18
-1.02
-0.66
-0.22
0.16
0.43
0.57
0.62
0.62
0.58
0.52
0.42
0.26
0.04
-0.19
-0.36
-0.42
-0.30
-0.03
0.34
0.70
0.94
0.99
0.84
0.58
0.32
0.21
0.29
0.51
0.71
0.76
0.58
0.21
-0.22
-0.55
-0.72
-0.73
-0.64
-0.50
-0.33
-0.11
0.13
0.33
0.43
0.35
0.12
-0.21
-0.51
-0.69
-0.70
-0.54
-0.25
0.11
0.44
0.66
0.72
0.59
0.30
-0.04
-0.31
-0.41
-0.32
-0.07
0.22
0.42
0.46
0.30
0.02
-0.27
-0.50
-0.60
-0.60
-0.50
-0.34
-0.13
0.11
0.32
0.44
0.41
0.29
0.18
0.19
0.39
0.67
0.88
0.83
0.47
-0.10
-0.66
-1.03
-1.14
-1.06
-0.94
-0.89
-0.92
-0.92
-0.77
-0.44
0.05
0.54
0.88
0.96
0.75
0.37
-0.03
-0.27
-0.28
-0.07
0.26
0.58
0.78
0.81
0.69
0.50
0.30
0.11
-0.03
-0.13
-0.17
-0.13
-0.02
0.13
0.29
0.40
0.44
0.40
0.31
0.22
0.15
0.12
0.10
0.07
-0.00
-0.14
-0.35
-0.62
-0.92
-1.19
-1.39
-1.50
-1.50
-1.38
-1.11
-0.70
-0.18
0.33
0.70
0.80
0.62
0.22
-0.24
-0.59
-0.76
-0.74
-0.63
-0.50
-0.38
-0.23
-0.01
0.27
0.54
0.70
0.70
0.53
0.28
0.07
0.02
0.14
0.39
0.67
0.84
0.85
0.68
0.43
0.20
0.11
0.19
0.37
0.55
0.63
0.60
0.49
0.40
0.39
0.45
0.51
0.49
0.36
0.11
-0.21
-0.54
-0.82
-1.00
-1.05
-0.92
-0.64
-0.31
-0.02
0.12
0.09
-0.08
-0.30
-0.47
-0.55
-0.52
-0.42
-0.29
-0.18
-0.08
0.01
0.11
0.24
0.41
0.59
0.78
0.93
0.99
0.95
0.81
0.58
0.29
-0.07
-0.46
-0.84
-1.13
-1.24
-1.12
-0.82
-0.48
-0.24
-0.23
-0.42
-0.70
-0.89
-0.90
-0.71
-0.44
-0.23
-0.13
-0.15
-0.21
-0.22
-0.14
0.04
0.26
0.48
0.66
0.78
0.84
0.86
0.83
0.77
0.68
0.61
0.57
0.59
0.65
0.73
0.75
0.69
0.57
0.43
0.31
0.25
0.18
0.06
-0.12
-0.33
-0.47
-0.48
-0.37
-0.21
-0.06
0.04
0.13
0.26
0.43
0.56
0.54
0.31
-0.10
-0.53
-0.82
-0.88
-0.73
-0.51
-0.37
-0.39
-0.53
-0.68
-0.72
-0.60
-0.34
-0.06
0.15
0.24
0.20
0.08
-0.05
-0.16
-0.23
-0.26
-0.26
-0.24
-0.21
-0.17
-0.12
-0.03
0.11
0.32
0.57
0.81
0.96
0.99
0.89
0.71
0.54
0.40
0.29
0.18
0.04
-0.15
-0.34
-0.49
-0.55
-0.49
-0.37
-0.23
-0.11
-0.02
0.08
0.22
0.41
0.60
0.73
0.74
0.63
0.40
0.16
-0.03
-0.14
-0.16
-0.17
-0.22
-0.33
-0.46
-0.55
-0.55
-0.46
-0.35
-0.33
-0.43
-0.59
-0.69
-0.60
-0.28
0.17
0.56
0.73
0.62
0.29
-0.08
-0.32
-0.36
-0.24
-0.04
0.11
0.18
0.17
0.14
0.08
-0.02
-0.17
-0.37
-0.52
-0.52
-0.33
0.00
0.33
0.49
0.40
0.12
-0.18
-0.32
-0.22
0.01
0.21
0.22
0.01
-0.27
-0.41
-0.27
0.10
0.52
0.75
0.63
0.21
-0.28
-0.61
-0.63
-0.36
-0.00
0.23
0.23
-0.02
-0.36
-0.67
-0.82
-0.81
-0.65
-0.37
-0.04
0.32
0.61
0.77
0.75
0.56
0.25
-0.09
-0.36
-0.48
-0.44
-0.25
0.04
0.35
0.58
0.68
0.63
0.48
0.36
0.33
0.45
0.64
0.79
0.79
0.62
0.35
0.09
-0.10
-0.20
-0.25
-0.28
-0.26
-0.15
0.09
0.41
0.67
0.72
0.52
0.12
-0.35
-0.72
-0.95
-1.05
-1.03
-0.92
-0.69
-0.37
-0.02
0.24
0.31
0.16
-0.13
-0.41
-0.54
-0.47
-0.25
0.04
0.27
0.39
0.38
0.28
0.10
-0.08
-0.23
-0.31
-0.29
-0.19
-0.01
0.23
0.50
0.76
0.95
1.01
0.90
0.64
0.31
0.00
-0.20
-0.26
-0.23
-0.18
-0.18
-0.26
-0.42
-0.60
-0.75
-0.84
-0.83
-0.73
-0.57
-0.38
-0.20
-0.08
-0.03
-0.06
-0.12
-0.18
-0.19
-0.10
0.09
0.36
0.65
0.87
0.96
0.91
0.76
0.57
0.37
0.17
-0.03
-0.24
-0.44
-0.59
-0.69
-0.73
-0.74
-0.71
-0.61
-0.40
-0.07
0.37
0.80
1.10
1.18
1.01
0.64
0.21
-0.18
-0.45
-0.56
-0.53
-0.37
-0.14
0.12
0.36
0.51
0.55
0.46
0.27
0.01
-0.24
-0.45
-0.56
-0.59
-0.54
-0.46
-0.36
-0.29
-0.24
-0.24
-0.27
-0.34
-0.41
-0.47
-0.47
-0.37
-0.12
0.27
0.72
1.12
1.35
1.32
1.03
0.57
0.10
-0.22
-0.32
-0.21
0.01
0.21
0.30
0.26
0.13
-0.02
-0.14
-0.18
-0.16
-0.07
0.03
0.12
0.17
0.18
0.16
0.16
0.18
0.21
0.18
0.07
-0.13
-0.35
-0.51
-0.54
-0.44
-0.28
-0.19
-0.25
-0.48
-0.79
-1.05
-1.14
-0.99
-0.64
-0.19
0.23
0.55
0.69
0.66
0.49
0.24
0.00
-0.14
-0.13
0.03
0.28
0.53
0.68
0.66
0.49
0.20
-0.11
-0.35
-0.46
-0.42
-0.23
0.03
0.29
0.44
0.41
0.20
-0.15
-0.51
-0.77
-0.82
-0.63
-0.27
0.15
0.50
0.72
0.82
0.83
0.77
0.66
0.47
0.22
-0.04
-0.25
-0.33
-0.25
-0.04
0.22
0.43
0.54
0.55
0.50
0.44
0.38
0.29
0.14
-0.11
-0.42
-0.70
-0.87
-0.85
-0.68
-0.42
-0.17
-0.01
0.08
0.13
0.17
0.20
0.18
0.08
-0.10
-0.31
-0.48
-0.54
-0.50
-0.42
-0.37
-0.41
-0.52
-0.61
-0.59
-0.41
-0.11
0.25
0.54
0.69
0.66
0.49
0.23
-0.02
-0.20
-0.26
-0.22
-0.10
0.05
0.17
0.26
0.30
0.32
0.32
0.30
0.26
0.22
0.23
0.36
0.62
0.96
1.29
1.47
1.41
1.11
0.64
0.13
-0.29
-0.56
-0.68
-0.69
-0.64
-0.56
-0.48
-0.41
-0.36
-0.34
-0.28
-0.17
0.03
0.24
0.35
0.22
-0.21
-0.84
-1.48
-1.89
-1.93
-1.62
-1.12
-0.62
-0.28
-0.12
-0.03
0.09
0.27
0.45
0.51
0.36
0.02
-0.37
-0.63
-0.58
-0.23
0.33
0.90
1.29
1.41
1.28
1.04
0.82
0.71
0.72
0.80
0.84
0.77
0.54
0.18
-0.21
-0.52
-0.67
-0.64
-0.48
-0.30
-0.21
-0.27
-0.45
-0.64
-0.73
-0.64
-0.38
-0.07
0.17
0.27
0.22
0.08
-0.07
-0.21
-0.32
-0.42
-0.48
-0.46
-0.31
-0.07
0.19
0.34
0.34
0.19
0.00
-0.09
-0.02
0.18
0.38
0.45
0.31
0.01
-0.30
-0.52
-0.55
-0.45
-0.30
-0.22
-0.20
-0.19
-0.10
0.12
0.41
0.63
0.66
0.47
0.14
-0.17
-0.35
-0.35
-0.24
-0.11
-0.07
-0.14
-0.28
-0.41
-0.46
-0.40
-0.27
-0.11
0.05
0.23
0.49
0.83
1.22
1.52
1.57
1.32
0.82
0.25
-0.19
-0.37
-0.32
-0.15
-0.01
0.03
0.03
0.05
0.16
0.33
0.48
0.52
0.41
0.19
-0.08
-0.30
-0.45
-0.52
-0.52
-0.48
-0.39
-0.29
-0.20
-0.15
-0.19
-0.32
-0.50
-0.65
-0.69
-0.57
-0.35
-0.13
-0.02
-0.04
-0.14
-0.20
-0.13
0.09
0.38
0.64
0.79
0.80
0.68
0.47
0.20
-0.08
-0.35
-0.52
-0.55
-0.42
-0.20
0.04
0.19
0.20
0.08
-0.12
-0.33
-0.47
-0.52
-0.45
-0.28
-0.06
0.17
0.36
0.49
0.57
0.63
0.68
0.69
0.59
0.34
-0.03
-0.43
-0.72
-0.77
-0.56
-0.20
0.17
0.39
0.40
0.23
-0.01
-0.18
-0.23
-0.13
0.10
0.39
0.66
0.83
0.85
0.70
0.42
0.11
-0.14
-0.28
-0.33
-0.35
-0.40
-0.51
-0.64
-0.69
-0.62
-0.42
-0.17
0.03
0.11
0.07
-0.04
-0.15
-0.20
-0.19
-0.13
-0.06
0.02
0.11
0.19
0.23
0.19
0.04
-0.15
-0.30
-0.33
-0.19
0.05
0.29
0.39
0.29
-0.02
-0.42
-0.79
-1.01
-1.00
-0.75
-0.32
0.17
0.60
0.87
0.92
0.78
0.55
0.32
0.18
0.14
0.15
0.13
0.01
-0.19
-0.40
-0.55
-0.57
-0.48
-0.35
-0.25
-0.25
-0.34
-0.47
-0.57
-0.59
-0.49
-0.31
-0.08
0.14
0.30
0.41
0.48
0.55
0.62
0.68
0.67
0.56
0.36
0.14
-0.02
-0.06
0.03
0.22
0.44
0.65
0.80
0.91
0.96
0.96
0.87
0.69
0.43
0.11
-0.27
-0.66
-1.01
-1.23
-1.25
-1.01
-0.54
0.05
0.60
0.94
1.02
0.86
0.56
0.22
-0.06
-0.25
-0.36
-0.40
-0.40
-0.39
-0.37
-0.36
-0.34
-0.32
-0.29
-0.25
-0.21
-0.14
-0.02
0.15
0.36
0.55
0.64
0.58
0.35
0.03
-0.28
-0.49
-0.55
-0.47
-0.32
-0.18
-0.10
-0.13
-0.23
-0.39
-0.54
-0.63
-0.60
-0.46
-0.24
0.00
0.18
0.24
0.20
0.13
0.11
0.19
0.36
0.52
0.57
0.46
0.21
-0.05
-0.19
-0.15
0.04
0.27
0.46
0.56
0.60
0.62
0.63
0.58
0.44
0.21
-0.07
-0.30
-0.42
-0.44
-0.42
-0.45
-0.56
-0.73
-0.89
-0.95
-0.92
-0.84
-0.74
-0.66
-0.57
-0.45
-0.26
-0.05
0.13
0.22
0.20
0.13
0.07
0.07
0.14
0.24
0.32
0.36
0.38
0.40
0.42
0.42
0.41
0.42
0.50
0.68
0.93
1.17
1.29
1.24
1.01
0.68
0.34
0.11
-0.00
-0.01
0.01
-0.00
-0.10
-0.26
-0.44
-0.58
-0.66
-0.68
-0.70
-0.80
-0.94
-1.08
-1.09
-0.91
-0.58
-0.22
-0.00
0.01
-0.18
-0.43
-0.60
-0.65
-0.57
-0.48
-0.44
-0.47
-0.52
-0.48
-0.31
-0.05
0.21
0.35
0.32
0.15
-0.03
-0.09
0.06
0.42
0.87
1.22
1.32
1.11
0.68
0.18
-0.20
-0.32
-0.15
0.21
0.61
0.91
1.00
0.86
0.57
0.22
-0.09
-0.30
-0.38
-0.36
-0.25
-0.08
0.11
0.29
0.40
0.38
0.21
-0.09
-0.41
-0.62
-0.62
-0.41
-0.08
0.21
0.35
0.28
0.08
-0.13
-0.27
-0.29
-0.25
-0.18
-0.13
-0.09
-0.03
0.06
0.17
0.24
0.24
0.19
0.12
0.08
0.14
0.29
0.46
0.55
0.47
0.18
-0.25
-0.65
-0.84
-0.68
-0.16
0.56
1.22
1.58
1.52
1.09
0.45
-0.18
-0.63
-0.82
-0.80
-0.65
-0.47
-0.33
-0.28
-0.34
-0.51
-0.75
-1.02
-1.21
-1.27
-1.20
-1.06
-0.93
-0.83
-0.76
-0.65
-0.45
-0.13
0.26
0.61
0.83
0.84
0.66
0.37
0.07
-0.11
-0.10
0.10
0.39
0.64
0.72
0.59
0.32
0.04
-0.13
-0.19
-0.18
-0.17
-0.19
-0.21
-0.16
0.00
0.27
0.54
0.73
0.79
0.75
0.66
0.57
0.49
0.40
0.28
0.14
0.02
-0.06
-0.06
-0.01
0.11
0.26
0.43
0.55
0.56
0.41
0.13
-0.19
-0.44
-0.53
-0.48
-0.39
-0.39
-0.52
-0.73
-0.93
-0.99
-0.86
-0.58
-0.25
0.01
0.13
0.04
-0.19
-0.47
-0.68
-0.72
-0.56
-0.23
0.19
0.60
0.94
1.18
1.29
1.24
1.01
0.65
0.25
-0.04
-0.11
0.06
0.37
0.66
0.77
0.62
0.27
-0.10
-0.34
-0.36
-0.19
0.04
0.19
0.17
-0.01
-0.28
-0.52
-0.64
-0.65
-0.56
-0.43
-0.30
-0.18
-0.07
-0.02
-0.05
-0.19
-0.36
-0.47
-0.41
-0.17
0.18
0.45
0.51
0.32
-0.01
-0.31
-0.42
-0.27
0.05
0.38
0.57
0.56
0.40
0.20
0.04
-0.03
-0.04
-0.04
-0.09
-0.18
-0.30
-0.41
-0.51
-0.56
-0.60
-0.62
-0.58
-0.46
-0.25
0.04
0.34
0.58
0.72
0.78
0.77
0.73
0.66
0.53
0.35
0.13
-0.06
-0.16
-0.17
-0.10
-0.02
0.01
-0.03
-0.12
-0.24
-0.38
-0.54
-0.72
-0.90
-1.06
-1.19
-1.28
-1.29
-1.17
-0.91
-0.47
0.07
0.59
0.97
1.13
1.07
0.85
0.60
0.40
0.29
0.28
0.35
0.46
0.57
0.63
0.61
0.48
0.28
0.08
-0.05
-0.05
0.09
0.28
0.44
0.49
0.39
0.19
-0.03
-0.22
-0.34
-0.42
-0.47
-0.50
-0.46
-0.33
-0.10
0.17
0.40
0.51
0.47
0.33
0.15
0.00
-0.06
-0.02
0.13
0.33
0.53
0.61
0.53
0.27
-0.06
-0.33
-0.43
-0.36
-0.17
0.01
0.10
0.09
-0.01
-0.15
-0.31
-0.45
-0.57
-0.62
-0.56
-0.37
-0.08
0.23
0.46
0.55
0.49
0.32
0.10
-0.09
-0.19
-0.21
-0.18
-0.16
-0.19
-0.29
-0.40
-0.48
-0.47
-0.39
-0.28
-0.16
-0.05
0.08
0.27
0.49
0.69
0.80
0.77
0.62
0.44
0.34
0.36
0.48
0.62
0.69
0.65
0.51
0.33
0.14
-0.05
-0.27
-0.49
-0.70
-0.82
-0.79
-0.64
-0.43
-0.27
-0.22
-0.29
-0.44
-0.59
-0.70
-0.73
-0.68
-0.54
-0.30
-0.00
0.26
0.39
0.33
0.10
-0.21
-0.47
-0.59
-0.56
-0.39
-0.14
0.14
0.37
0.49
0.43
0.20
-0.16
-0.49
-0.64
-0.54
-0.25
0.09
0.29
0.25
0.01
-0.32
-0.56
-0.60
-0.41
-0.06
0.32
0.61
0.72
0.66
0.51
0.36
0.28
0.29
0.34
0.37
0.34
0.27
0.21
0.20
0.26
0.36
0.43
0.42
0.28
0.05
-0.21
-0.41
-0.50
-0.48
-0.42
-0.41
-0.50
-0.64
-0.72
-0.63
-0.33
0.09
0.49
0.72
0.72
0.54
0.30
0.07
-0.09
-0.19
-0.22
-0.18
-0.06
0.13
0.36
0.56
0.69
0.71
0.64
0.52
0.39
0.25
0.12
0.00
-0.05
-0.03
0.07
0.22
0.35
0.38
0.27
0.03
-0.26
-0.51
-0.62
-0.57
-0.38
-0.12
0.11
0.26
0.30
0.24
0.12
-0.01
-0.13
-0.22
-0.27
-0.29
-0.28
-0.28
-0.33
-0.47
-0.70
-0.95
-1.13
-1.16
-0.98
-0.62
-0.19
0.18
0.37
0.35
0.15
-0.09
-0.24
-0.22
-0.01
0.32
0.65
0.86
0.91
0.81
0.61
0.37
0.14
-0.08
-0.27
-0.39
-0.41
-0.30
-0.11
0.10
0.23
0.24
0.14
0.00
-0.08
-0.07
0.06
0.24
0.44
0.57
0.62
0.58
0.48
0.39
0.34
0.36
0.39
0.36
0.19
-0.14
-0.55
-0.89
-1.01
-0.84
-0.46
-0.00
0.38
0.59
0.65
0.59
0.47
0.29
0.05
-0.23
-0.49
-0.67
-0.69
-0.58
-0.43
-0.33
-0.34
-0.46
-0.61
-0.71
-0.74
-0.72
-0.72
-0.76
-0.84
-0.88
-0.80
-0.54
-0.14
0.31
0.71
0.96
1.06
1.09
1.13
1.25
1.43
1.60
1.62
1.42
1.00
0.45
-0.06
-0.42
-0.55
-0.51
-0.38
-0.28
-0.25
-0.26
-0.24
-0.12
0.11
0.38
0.59
0.66
0.55
0.33
0.07
-0.12
-0.17
-0.08
0.08
0.25
0.33
0.29
0.14
-0.06
-0.25
-0.38
-0.46
-0.53
-0.64
-0.83
-1.06
-1.22
-1.23
-1.00
-0.59
-0.12
0.22
0.35
0.24
0.02
-0.16
-0.20
-0.09
0.07
0.17
0.15
0.05
-0.03
-0.01
0.12
0.28
0.37
0.33
0.17
-0.00
-0.10
-0.06
0.12
0.36
0.57
0.68
0.65
0.54
0.42
0.36
0.38
0.46
0.50
0.41
0.15
-0.23
-0.64
-0.93
-1.00
-0.83
-0.48
-0.07
0.27
0.42
0.38
0.22
0.03
-0.08
-0.09
0.02
0.16
0.28
0.34
0.32
0.21
0.06
-0.14
-0.32
-0.47
-0.54
-0.55
-0.50
-0.41
-0.28
-0.11
0.06
0.19
0.21
0.09
-0.12
-0.36
-0.50
-0.51
-0.43
-0.34
-0.33
-0.38
-0.43
-0.40
-0.23
0.02
0.27
0.42
0.48
0.47
0.49
0.57
0.73
0.91
1.04
1.04
0.88
0.56
0.14
-0.29
-0.65
-0.87
-0.95
-0.92
-0.85
-0.75
-0.63
-0.47
-0.27
-0.05
0.16
0.33
0.47
0.56
0.59
0.54
0.38
0.17
-0.02
-0.12
-0.08
0.06
0.23
0.34
0.37
0.31
0.22
0.10
-0.02
-0.15
-0.22
-0.18
0.04
0.40
0.78
0.97
0.84
0.38
-0.27
-0.85
-1.16
-1.12
-0.82
-0.42
-0.08
0.13
0.20
0.20
0.16
0.08
-0.05
-0.24
-0.46
-0.63
-0.67
-0.54
-0.26
0.08
0.38
0.57
0.58
0.41
0.13
-0.19
-0.46
-0.56
-0.47
-0.20
0.19
0.58
0.85
0.94
0.84
0.60
0.32
0.09
-0.07
-0.15
-0.19
-0.23
-0.29
-0.39
-0.51
-0.63
-0.70
-0.69
-0.57
-0.36
-0.07
0.23
0.48
0.65
0.73
0.72
0.64
0.51
0.33
0.13
-0.06
-0.19
-0.21
-0.11
0.05
0.18
0.15
-0.08
-0.47
-0.89
-1.18
-1.23
-1.04
-0.72
-0.43
-0.23
-0.10
0.04
0.29
0.64
0.99
1.22
1.22
0.98
0.62
0.26
-0.02
-0.16
-0.18
-0.11
0.02
0.18
0.33
0.42
0.41
0.28
0.07
-0.19
-0.43
-0.64
-0.79
-0.85
-0.77
-0.51
-0.08
0.46
0.98
1.32
1.36
1.10
0.60
0.01
-0.50
-0.84
-0.99
-0.98
-0.88
-0.72
-0.52
-0.30
-0.07
0.11
0.20
0.18
0.06
-0.09
-0.21
-0.24
-0.18
-0.04
0.13
0.29
0.41
0.48
0.48
0.41
0.27
0.09
-0.11
-0.32
-0.49
-0.62
-0.70
-0.72
-0.69
-0.64
-0.60
-0.58
-0.55
-0.43
-0.17
0.21
0.61
0.89
0.93
0.70
0.32
-0.04
-0.21
-0.13
0.16
0.53
0.85
1.05
1.12
1.08
0.93
0.70
0.40
0.10
-0.14
-0.24
-0.18
-0.01
0.20
0.34
0.38
0.32
0.19
0.04
-0.12
-0.28
-0.42
-0.54
-0.64
-0.69
-0.69
-0.63
-0.53
-0.45
-0.43
-0.51
-0.69
-0.87
-0.95
-0.86
-0.57
-0.17
0.22
0.50
0.63
0.62
0.53
0.37
0.14
-0.14
-0.42
-0.63
-0.67
-0.50
-0.17
0.26
0.69
1.06
1.30
1.38
1.26
0.96
0.53
0.10
-0.22
-0.38
-0.38
-0.33
-0.31
-0.35
-0.41
-0.39
-0.21
0.11
0.48
0.76
0.83
0.70
0.46
0.24
0.13
0.16
0.25
0.32
0.34
0.28
0.18
0.04
-0.16
-0.46
-0.82
-1.15
-1.35
-1.31
-1.04
-0.65
-0.26
0.01
0.16
0.24
0.30
0.39
0.45
0.43
0.29
0.02
-0.31
-0.65
-0.94
-1.14
-1.24
-1.24
-1.12
-0.91
-0.64
-0.37
-0.15
-0.00
0.09
0.17
0.30
0.52
0.80
1.08
1.31
1.42
1.44
1.36
1.23
1.02
0.72
0.35
-0.03
-0.28
-0.30
-0.05
0.37
0.78
0.98
0.87
0.48
-0.02
-0.47
-0.76
-0.85
-0.81
-0.72
-0.60
-0.45
-0.26
-0.06
0.10
0.13
0.00
-0.25
-0.53
-0.73
-0.79
-0.71
-0.53
-0.34
-0.21
-0.12
-0.06
0.02
0.13
0.22
0.23
0.10
-0.13
-0.36
-0.46
-0.34
-0.01
0.41
0.76
0.91
0.83
0.58
0.25
-0.04
-0.23
-0.31
-0.27
-0.15
0.03
0.21
0.30
0.26
0.11
-0.07
-0.17
-0.11
0.10
0.35
0.50
0.47
0.28
0.04
-0.12
-0.10
0.09
0.35
0.56
0.62
0.52
0.33
0.14
0.02
-0.05
-0.11
-0.20
-0.34
-0.48
-0.60
-0.65
-0.62
-0.54
-0.39
-0.18
0.11
0.49
0.88
1.19
1.31
1.21
0.89
0.47
0.07
-0.21
-0.32
-0.29
-0.20
-0.16
-0.23
-0.45
-0.72
-0.93
-0.97
-0.79
-0.46
-0.09
0.20
0.33
0.28
0.11
-0.11
-0.33
-0.49
-0.59
-0.62
-0.59
-0.50
-0.35
-0.16
0.06
0.25
0.36
0.38
0.35
0.33
0.36
0.45
0.53
0.54
0.44
0.26
0.09
0.02
0.06
0.19
0.32
0.34
0.23
0.02
-0.24
-0.50
-0.69
-0.79
-0.77
-0.62
-0.39
-0.12
0.11
0.27
0.35
0.38
0.40
0.40
0.36
0.25
0.07
-0.14
-0.34
-0.45
-0.49
-0.46
-0.40
-0.37
-0.35
-0.34
-0.32
-0.29
-0.25
-0.19
-0.09
0.06
0.24
0.41
0.50
0.46
0.27
0.01
-0.23
-0.34
-0.27
-0.05
0.23
0.45
0.55
0.55
0.48
0.40
0.31
0.20
0.05
-0.11
-0.22
-0.25
-0.18
-0.11
-0.11
-0.26
-0.53
-0.81
-0.98
-0.96
-0.74
-0.39
0.01
0.38
0.65
0.74
0.63
0.34
-0.03
-0.35
-0.48
-0.38
-0.09
0.26
0.52
0.63
0.56
0.40
0.21
0.04
-0.10
-0.24
-0.39
-0.53
-0.62
-0.62
-0.52
-0.33
-0.08
0.16
0.39
0.56
0.66
0.68
0.59
0.41
0.18
-0.00
-0.09
-0.06
0.03
0.14
0.20
0.23
0.27
0.34
0.45
0.56
0.61
0.60
0.56
0.54
0.55
0.55
0.49
0.31
0.02
-0.33
-0.63
-0.81
-0.86
-0.84
-0.82
-0.82
-0.83
-0.80
-0.68
-0.46
-0.20
0.01
0.10
0.03
-0.13
-0.28
-0.33
-0.23
-0.00
0.25
0.42
0.44
0.30
0.05
-0.24
-0.47
-0.59
-0.57
-0.38
-0.02
0.44
0.93
1.33
1.52
1.47
1.21
0.85
0.54
0.35
0.26
0.20
0.12
0.00
-0.11
-0.16
-0.14
-0.10
-0.09
-0.11
-0.14
-0.15
-0.12
-0.08
-0.08
-0.14
-0.25
-0.33
-0.35
-0.32
-0.28
-0.31
-0.40
-0.51
-0.58
-0.54
-0.40
-0.24
-0.12
-0.07
-0.07
-0.08
-0.08
-0.05
-0.04
-0.06
-0.10
-0.10
-0.00
0.20
0.42
0.56
0.51
0.24
-0.18
-0.63
-0.99
-1.21
-1.25
-1.10
-0.80
-0.36
0.13
0.57
0.83
0.83
0.57
0.15
-0.27
-0.53
-0.56
-0.40
-0.15
0.10
0.29
0.41
0.49
0.54
0.56
0.51
0.43
0.33
0.28
0.29
0.31
0.25
0.07
-0.21
-0.53
-0.74
-0.77
-0.60
-0.30
0.04
0.35
0.54
0.58
0.46
0.22
-0.03
-0.19
-0.14
0.14
0.58
1.00
1.28
1.31
1.08
0.67
0.17
-0.32
-0.71
-0.92
-0.91
-0.68
-0.31
0.06
0.28
0.28
0.08
-0.23
-0.53
-0.69
-0.67
-0.50
-0.23
0.06
0.29
0.40
0.36
0.15
-0.15
-0.44
-0.65
-0.72
-0.65
-0.48
-0.22
0.08
0.39
0.62
0.69
0.57
0.29
-0.03
-0.24
-0.23
-0.02
0.28
0.52
0.62
0.57
0.45
0.38
0.41
0.55
0.74
0.89
0.93
0.84
0.62
0.33
0.02
-0.27
-0.50
-0.68
-0.79
-0.78
-0.61
-0.27
0.20
0.66
0.99
1.10
0.97
0.66
0.26
-0.15
-0.52
-0.83
-1.06
-1.17
-1.14
-0.95
-0.66
-0.34
-0.12
-0.07
-0.21
-0.47
-0.73
-0.88
-0.88
-0.75
-0.57
-0.44
-0.34
-0.24
-0.09
0.13
0.34
0.44
0.39
0.22
-0.01
-0.20
-0.31
-0.35
-0.33
-0.27
-0.17
-0.01
0.16
0.30
0.39
0.42
0.43
0.45
0.49
0.50
0.46
0.36
0.25
0.17
0.16
0.18
0.21
0.24
0.28
0.35
0.43
0.46
0.35
0.07
-0.32
-0.67
-0.86
-0.80
-0.52
-0.13
0.22
0.43
0.47
0.36
0.15
-0.12
-0.38
-0.58
-0.65
-0.56
-0.32
0.00
0.30
0.48
0.49
0.37
0.21
0.07
-0.00
-0.02
-0.04
-0.10
-0.19
-0.29
-0.35
-0.37
-0.38
-0.40
-0.45
-0.48
-0.45
-0.29
-0.01
0.35
0.69
0.92
1.00
0.94
0.77
0.55
0.29
0.02
-0.21
-0.38
-0.42
-0.31
-0.08
0.17
0.36
0.43
0.41
0.37
0.40
0.51
0.65
0.67
0.45
-0.02
-0.65
-1.23
-1.57
-1.52
-1.11
-0.49
0.14
0.58
0.71
0.52
0.10
-0.39
-0.83
-1.08
-1.08
-0.82
-0.34
0.24
0.75
1.04
1.02
0.71
0.25
-0.17
-0.42
-0.44
-0.31
-0.15
-0.02
0.06
0.14
0.28
0.46
0.65
0.76
0.77
0.69
0.59
0.50
0.42
0.34
0.21
0.04
-0.09
-0.10
0.05
0.37
0.72
0.95
0.93
0.62
0.08
-0.51
-0.98
-1.23
-1.22
-1.03
-0.76
-0.49
-0.29
-0.15
-0.07
-0.03
-0.05
-0.12
-0.22
-0.31
-0.34
-0.27
-0.12
0.08
0.25
0.34
0.34
0.26
0.15
0.06
-0.02
-0.12
-0.28
-0.48
-0.70
-0.83
-0.78
-0.54
-0.14
0.31
0.65
0.77
0.63
0.30
-0.09
-0.40
-0.55
-0.50
-0.29
0.05
0.43
0.75
0.93
0.90
0.68
0.36
0.05
-0.14
-0.18
-0.13
-0.10
-0.14
-0.24
-0.30
-0.22
0.02
0.32
0.52
0.53
0.33
0.06
-0.12
-0.12
0.04
0.23
0.33
0.30
0.18
0.09
0.11
0.24
0.37
0.39
0.22
-0.11
-0.49
-0.77
-0.85
-0.74
-0.51
-0.29
-0.15
-0.13
-0.18
-0.27
-0.35
-0.41
-0.46
-0.44
-0.30
-0.03
0.36
0.73
0.93
0.83
0.42
-0.17
-0.72
-1.00
-0.92
-0.53
-0.01
0.42
0.62
0.58
0.42
0.30
0.34
0.53
0.75
0.85
0.72
0.38
-0.05
-0.38
-0.49
-0.38
-0.16
0.02
0.05
-0.06
-0.25
-0.39
-0.43
-0.42
-0.42
-0.52
-0.68
-0.83
-0.83
-0.64
-0.27
0.14
0.44
0.55
0.48
0.34
0.27
0.32
0.47
0.64
0.71
0.61
0.37
0.06
-0.23
-0.44
-0.55
-0.55
-0.48
-0.33
-0.15
0.05
0.23
0.36
0.40
0.35
0.23
0.04
-0.17
-0.31
-0.31
-0.14
0.20
0.60
0.90
0.98
0.80
0.47
0.13
-0.08
-0.14
-0.13
-0.13
-0.21
-0.33
-0.42
-0.44
-0.38
-0.32
-0.30
-0.31
-0.30
-0.17
0.08
0.37
0.55
0.48
0.14
-0.35
-0.79
-0.98
-0.83
-0.39
0.15
0.56
0.67
0.50
0.17
-0.10
-0.19
-0.10
0.06
0.12
0.03
-0.15
-0.28
-0.19
0.13
0.58
0.98
1.15
1.02
0.66
0.20
-0.22
-0.53
-0.72
-0.81
-0.83
-0.78
-0.68
-0.53
-0.38
-0.25
-0.13
-0.01
0.14
0.32
0.47
0.57
0.55
0.44
0.28
0.12
-0.04
-0.18
-0.32
-0.43
-0.46
-0.37
-0.16
0.09
0.31
0.41
0.41
0.34
0.23
0.09
-0.10
-0.38
-0.68
-0.89
-0.91
-0.67
-0.24
0.23
0.58
0.72
0.66
0.49
0.33
0.23
0.20
0.18
0.11
0.00
-0.13
-0.24
-0.32
-0.37
-0.39
-0.40
-0.38
-0.32
-0.20
-0.05
0.10
0.21
0.27
0.32
0.35
0.39
0.43
0.46
0.45
0.43
0.44
0.50
0.59
0.66
0.62
0.40
0.01
-0.47
-0.88
-1.10
-1.03
-0.74
-0.33
0.04
0.26
0.30
0.24
0.15
0.08
0.02
-0.08
-0.25
-0.46
-0.63
-0.69
-0.58
-0.31
0.02
0.30
0.47
0.49
0.39
0.23
0.10
0.06
0.10
0.19
0.28
0.28
0.17
-0.03
-0.25
-0.38
-0.35
-0.16
0.12
0.36
0.42
0.25
-0.12
-0.54
-0.86
-0.96
-0.83
-0.57
-0.30
-0.15
-0.15
-0.21
-0.25
-0.17
0.02
0.22
0.33
0.32
0.23
0.19
0.28
0.53
0.84
1.08
1.12
0.94
0.66
0.41
0.32
0.37
0.48
0.48
0.29
-0.10
-0.56
-0.95
-1.14
-1.13
-0.98
-0.81
-0.70
-0.65
-0.58
-0.43
-0.16
0.17
0.43
0.51
0.38
0.09
-0.24
-0.47
-0.50
-0.34
-0.06
0.18
0.28
0.22
0.06
-0.05
-0.01
0.21
0.51
0.71
0.69
0.46
0.13
-0.11
-0.14
0.05
0.34
0.57
0.63
0.52
0.35
0.20
0.13
0.14
0.17
0.16
0.13
0.10
0.08
0.07
0.01
-0.14
-0.33
-0.47
-0.47
-0.31
-0.08
0.07
0.03
-0.24
-0.62
-0.96
-1.13
-1.09
-0.90
-0.65
-0.40
-0.20
-0.01
0.18
0.33
0.44
0.49
0.51
0.55
0.64
0.77
0.92
1.04
1.09
1.09
1.06
1.02
0.95
0.84
0.63
0.32
-0.04
-0.35
-0.54
-0.55
-0.39
-0.18
-0.00
0.04
-0.09
-0.34
-0.61
-0.81
-0.86
-0.75
-0.56
-0.38
-0.26
-0.25
-0.31
-0.40
-0.45
-0.44
-0.38
-0.32
-0.29
-0.32
-0.38
-0.39
-0.30
-0.10
0.16
0.38
0.48
0.45
0.33
0.18
0.05
-0.06
-0.22
-0.47
-0.79
-1.09
-1.24
-1.15
-0.82
-0.32
0.19
0.59
0.80
0.82
0.70
0.51
0.33
0.23
0.25
0.38
0.57
0.73
0.78
0.71
0.54
0.38
0.30
0.33
0.44
0.53
0.52
0.35
0.07
-0.24
-0.47
-0.53
-0.40
-0.15
0.07
0.15
0.03
-0.24
-0.54
-0.72
-0.73
-0.57
-0.32
-0.08
0.13
0.32
0.46
0.51
0.39
0.06
-0.40
-0.84
-1.06
-0.94
-0.54
-0.04
0.33
0.41
0.21
-0.11
-0.35
-0.35
-0.10
0.26
0.56
0.68
0.61
0.44
0.28
0.15
0.03
-0.13
-0.32
-0.48
-0.49
-0.27
0.17
0.70
1.14
1.32
1.18
0.76
0.19
-0.37
-0.78
-0.97
-0.93
-0.70
-0.36
-0.02
0.24
0.37
0.34
0.17
-0.11
-0.43
-0.71
-0.88
-0.89
-0.73
-0.42
-0.04
0.31
0.52
0.57
0.46
0.31
0.20
0.18
0.23
0.26
0.22
0.11
0.02
0.03
0.17
0.38
0.53
0.52
0.32
0.01
-0.25
-0.32
-0.13
0.27
0.76
1.16
1.35
1.28
0.99
0.58
0.12
-0.33
-0.75
-1.13
-1.41
-1.49
-1.30
-0.83
-0.21
0.38
0.75
0.81
0.55
0.11
-0.33
-0.62
-0.72
-0.63
-0.44
-0.27
-0.18
-0.21
-0.36
-0.55
-0.73
-0.84
-0.84
-0.73
-0.51
-0.24
0.05
0.32
0.57
0.76
0.89
0.93
0.83
0.58
0.24
-0.10
-0.31
-0.30
-0.09
0.21
0.41
0.42
0.22
-0.05
-0.23
-0.22
-0.05
0.14
0.20
0.07
-0.19
-0.45
-0.58
-0.52
-0.33
-0.06
0.21
0.44
0.61
0.69
0.65
0.50
0.27
0.09
0.06
0.21
0.49
0.77
0.92
0.86
0.60
0.22
-0.19
-0.53
-0.75
-0.81
-0.71
-0.49
-0.22
-0.01
0.06
-0.00
-0.17
-0.36
-0.50
-0.56
-0.57
-0.59
-0.62
-0.62
-0.54
-0.35
-0.05
0.25
0.46
0.51
0.42
0.24
0.05
-0.09
-0.21
-0.29
-0.33
-0.30
-0.18
0.01
0.19
0.29
0.23
0.09
-0.04
-0.04
0.12
0.35
0.53
0.51
0.31
0.00
-0.22
-0.28
-0.17
-0.02
0.02
-0.13
-0.43
-0.76
-0.96
-0.95
-0.75
-0.44
-0.12
0.14
0.30
0.35
0.28
0.12
-0.12
-0.36
-0.53
-0.58
-0.48
-0.27
0.00
0.32
0.65
0.96
1.19
1.27
1.13
0.76
0.26
-0.22
-0.50
-0.49
-0.18
0.31
0.81
1.16
1.24
1.05
0.63
0.11
-0.38
-0.72
-0.84
-0.75
-0.51
-0.20
0.08
0.26
0.29
0.20
0.05
-0.06
-0.08
0.03
0.21
0.35
0.38
0.24
-0.02
-0.30
-0.50
-0.55
-0.48
-0.36
-0.25
-0.17
-0.11
-0.02
0.13
0.32
0.50
0.62
0.61
0.47
0.21
-0.07
-0.28
-0.34
-0.24
-0.05
0.14
0.24
0.24
0.18
0.15
0.18
0.24
0.25
0.14
-0.11
-0.44
-0.76
-0.95
-0.91
-0.62
-0.13
0.44
0.90
1.09
0.88
0.28
-0.55
-1.35
-1.81
-1.74
-1.15
-0.22
0.73
1.38
1.57
1.32
0.81
0.30
-0.02
-0.05
0.14
0.42
0.65
0.78
0.79
0.71
0.53
0.25
-0.13
-0.54
-0.87
-0.98
-0.83
-0.47
-0.04
0.30
0.43
0.32
0.01
-0.38
-0.74
-0.98
-1.07
-1.02
-0.88
-0.71
-0.59
-0.53
-0.50
-0.42
-0.24
0.01
0.24
0.34
0.26
0.06
-0.14
-0.23
-0.17
-0.00
0.19
0.34
0.42
0.47
0.55
0.65
0.75
0.78
0.71
0.51
0.23
-0.08
-0.36
-0.56
-0.66
-0.65
-0.57
-0.44
-0.30
-0.17
-0.07
0.01
0.06
0.08
0.06
0.04
0.03
0.04
0.12
0.25
0.42
0.56
0.61
0.53
0.34
0.10
-0.09
-0.15
-0.07
0.09
0.23
0.28
0.17
-0.08
-0.39
-0.65
-0.77
-0.71
-0.49
-0.21
0.02
0.12
0.09
-0.02
-0.12
-0.13
-0.08
0.02
0.11
0.20
0.30
0.41
0.53
0.60
0.59
0.49
0.32
0.13
-0.04
-0.14
-0.19
-0.19
-0.15
-0.11
-0.11
-0.15
-0.21
-0.23
-0.15
0.04
0.28
0.47
0.52
0.45
0.32
0.25
0.30
0.44
0.58
0.59
0.43
0.11
-0.28
-0.63
-0.86
-0.93
-0.84
-0.59
-0.20
0.28
0.75
1.05
1.10
0.89
0.50
0.11
-0.15
-0.24
-0.21
-0.17
-0.19
-0.28
-0.36
-0.35
-0.26
-0.12
-0.05
-0.10
-0.24
-0.39
-0.44
-0.33
-0.09
0.17
0.33
0.32
0.15
-0.12
-0.37
-0.51
-0.49
-0.34
-0.10
0.15
0.35
0.43
0.36
0.13
-0.20
-0.57
-0.91
-1.14
-1.20
-1.06
-0.73
-0.28
0.18
0.53
0.65
0.54
0.29
0.06
-0.04
0.01
0.13
0.18
0.08
-0.11
-0.22
-0.11
0.25
0.70
1.00
0.95
0.56
0.01
-0.43
-0.59
-0.44
-0.15
0.10
0.17
0.05
-0.15
-0.31
-0.34
-0.26
-0.17
-0.17
-0.32
-0.59
-0.90
-1.12
-1.11
-0.84
-0.33
0.27
0.82
1.16
1.25
1.09
0.80
0.47
0.20
0.01
-0.06
-0.03
0.08
0.24
0.40
0.48
0.45
0.29
0.04
-0.19
-0.32
-0.30
-0.15
0.06
0.22
0.27
0.19
0.06
-0.06
-0.06
0.08
0.33
0.62
0.85
0.96
0.92
0.78
0.59
0.39
0.20
0.01
-0.22
-0.48
-0.72
-0.90
-0.95
-0.87
-0.73
-0.59
-0.50
-0.45
-0.39
-0.27
-0.07
0.17
0.37
0.50
0.56
0.59
0.64
0.71
0.76
0.77
0.72
0.62
0.51
0.44
0.40
0.36
0.28
0.10
-0.19
-0.54
-0.88
-1.09
-1.12
-0.95
-0.67
-0.37
-0.18
-0.17
-0.32
-0.56
-0.78
-0.90
-0.86
-0.66
-0.37
-0.04
0.23
0.38
0.39
0.26
0.06
-0.13
-0.20
-0.12
0.13
0.45
0.72
0.84
0.73
0.42
0.03
-0.33
-0.56
-0.62
-0.56
-0.43
-0.29
-0.15
-0.04
0.03
0.02
-0.11
-0.38
-0.68
-0.91
-0.92
-0.67
-0.23
0.25
0.61
0.78
0.75
0.59
0.36
0.14
-0.03
-0.10
-0.03
0.20
0.56
0.95
1.24
1.29
1.07
0.63
0.10
-0.35
-0.56
-0.48
-0.10
0.45
1.02
1.40
1.46
1.14
0.51
-0.26
-0.93
-1.28
-1.25
-0.90
-0.43
-0.06
0.07
-0.02
-0.23
-0.40
-0.45
-0.40
-0.34
-0.36
-0.47
-0.57
-0.58
-0.43
-0.14
0.20
0.46
0.52
0.37
0.07
-0.27
-0.50
-0.53
-0.34
-0.01
0.35
0.59
0.64
0.49
0.22
-0.10
-0.39
-0.60
-0.71
-0.72
-0.65
-0.51
-0.31
-0.07
0.19
0.46
0.69
0.85
0.90
0.81
0.61
0.35
0.12
-0.03
-0.07
-0.02
0.08
0.18
0.22
0.18
0.06
-0.09
-0.22
-0.29
-0.27
-0.20
-0.10
-0.04
-0.04
-0.10
-0.16
-0.17
-0.12
0.01
0.14
0.24
0.25
0.16
0.01
-0.16
-0.29
-0.33
-0.27
-0.13
0.07
0.27
0.44
0.54
0.52
0.38
0.12
-0.22
-0.59
-0.91
-1.13
-1.16
-1.00
-0.68
-0.27
0.14
0.42
0.51
0.39
0.12
-0.20
-0.48
-0.63
-0.60
-0.41
-0.08
0.30
0.67
0.92
0.99
0.85
0.54
0.18
-0.12
-0.27
-0.26
-0.14
0.01
0.12
0.16
0.14
0.09
0.02
-0.05
-0.12
-0.17
-0.19
-0.14
-0.02
0.17
0.40
0.62
0.76
0.76
0.62
0.36
0.07
-0.15
-0.25
-0.21
-0.07
0.11
0.24
0.30
0.27
0.15
-0.00
-0.13
-0.19
-0.14
0.01
0.20
0.32
0.30
0.12
-0.18
-0.49
-0.74
-0.86
-0.85
-0.75
-0.61
-0.47
-0.33
-0.22
-0.13
-0.06
-0.03
-0.02
-0.04
-0.08
-0.13
-0.16
-0.15
-0.10
-0.04
-0.01
-0.03
-0.07
-0.10
-0.05
0.07
0.23
0.36
0.38
0.30
0.18
0.10
0.09
0.16
0.24
0.29
0.30
0.28
0.28
0.29
0.30
0.28
0.20
0.08
-0.04
-0.12
-0.14
-0.12
-0.08
-0.07
-0.09
-0.13
-0.18
-0.24
-0.29
-0.31
-0.28
-0.19
-0.06
0.08
0.20
0.30
0.39
0.50
0.62
0.69
0.64
0.44
0.12
-0.23
-0.48
-0.54
-0.39
-0.12
0.17
0.36
0.38
0.23
0.01
-0.18
-0.22
-0.07
0.20
0.45
0.54
0.38
0.02
-0.38
-0.63
-0.63
-0.37
-0.00
0.30
0.40
0.28
0.02
-0.24
-0.39
-0.40
-0.29
-0.14
-0.04
-0.02
-0.07
-0.14
-0.21
-0.27
-0.35
-0.44
-0.53
-0.54
-0.39
-0.06
0.40
0.84
1.11
1.12
0.90
0.55
0.19
-0.09
-0.26
-0.34
-0.37
-0.35
-0.30
-0.23
-0.18
-0.19
-0.26
-0.33
-0.32
-0.19
0.06
0.30
0.40
0.28
-0.03
-0.39
-0.62
-0.64
-0.46
-0.17
0.08
0.19
0.15
0.03
-0.08
-0.12
-0.09
-0.00
0.09
0.17
0.22
0.25
0.30
0.38
0.50
0.64
0.74
0.77
0.70
0.58
0.48
0.42
0.39
0.34
0.20
-0.03
-0.28
-0.51
-0.65
-0.70
-0.70
-0.67
-0.61
-0.51
-0.34
-0.13
0.07
0.18
0.16
0.05
-0.10
-0.20
-0.20
-0.11
-0.01
0.04
0.01
-0.07
-0.14
-0.18
-0.20
-0.27
-0.45
-0.72
-1.00
-1.15
-1.08
-0.78
-0.32
0.16
0.54
0.76
0.84
0.82
0.77
0.72
0.70
0.69
0.69
0.68
0.62
0.49
0.29
0.04
-0.19
-0.34
-0.36
-0.29
-0.17
-0.08
-0.06
-0.12
-0.21
-0.27
-0.28
-0.24
-0.18
-0.13
-0.09
-0.03
0.07
0.22
0.37
0.45
0.40
0.23
-0.02
-0.23
-0.31
-0.23
-0.04
0.18
0.33
0.36
0.29
0.16
0.04
-0.03
-0.07
-0.08
-0.08
-0.08
-0.05
0.03
0.18
0.38
0.56
0.67
0.64
0.47
0.19
-0.11
-0.37
-0.55
-0.65
-0.68
-0.70
-0.69
-0.66
-0.61
-0.53
-0.45
-0.37
-0.26
-0.08
0.17
0.47
0.71
0.80
0.66
0.33
-0.08
-0.44
-0.64
-0.64
-0.51
-0.31
-0.14
-0.01
0.11
0.23
0.38
0.51
0.57
0.52
0.38
0.22
0.13
0.17
0.34
0.54
0.66
0.64
0.49
0.28
0.09
-0.05
-0.14
-0.19
-0.21
-0.16
-0.02
0.21
0.46
0.61
0.58
0.34
-0.02
-0.38
-0.62
-0.70
-0.67
-0.59
-0.53
-0.50
-0.49
-0.50
-0.54
-0.65
-0.81
-0.94
-0.93
-0.70
-0.27
0.20
0.51
0.53
0.28
-0.09
-0.37
-0.42
-0.23
0.05
0.26
0.33
0.27
0.20
0.20
0.29
0.41
0.46
0.40
0.23
0.04
-0.04
0.04
0.26
0.53
0.70
0.67
0.41
-0.01
-0.44
-0.73
-0.80
-0.65
-0.34
0.05
0.41
0.69
0.85
0.86
0.70
0.41
0.03
-0.33
-0.59
-0.72
-0.75
-0.73
-0.71
-0.69
-0.62
-0.44
-0.15
0.19
0.50
0.68
0.70
0.60
0.48
0.43
0.48
0.58
0.64
0.57
0.34
0.02
-0.30
-0.51
-0.58
-0.55
-0.48
-0.44
-0.45
-0.47
-0.44
-0.30
-0.07
0.22
0.48
0.66
0.73
0.68
0.52
0.26
-0.08
-0.46
-0.79
-1.00
-1.01
-0.80
-0.44
-0.06
0.24
0.35
0.30
0.16
0.02
-0.04
-0.00
0.14
0.35
0.61
0.87
1.08
1.17
1.08
0.81
0.44
0.12
-0.04
0.02
0.22
0.40
0.41
0.16
-0.29
-0.79
-1.17
-1.31
-1.18
-0.86
-0.46
-0.09
0.16
0.27
0.25
0.15
0.02
-0.11
-0.24
-0.35
-0.43
-0.45
-0.39
-0.25
-0.08
0.06
0.08
-0.01
-0.15
-0.25
-0.21
-0.03
0.20
0.38
0.43
0.36
0.23
0.12
0.05
0.02
-0.00
-0.01
0.03
0.11
0.20
0.21
0.08
-0.17
-0.40
-0.48
-0.32
0.03
0.42
0.67
0.68
0.52
0.30
0.13
0.06
0.03
-0.05
-0.21
-0.41
-0.58
-0.65
-0.61
-0.51
-0.45
-0.48
-0.60
-0.76
-0.90
-0.94
-0.83
-0.57
-0.17
0.29
0.75
1.10
1.29
1.29
1.12
0.84
0.50
0.17
-0.10
-0.27
-0.33
-0.26
-0.07
0.19
0.46
0.64
0.68
0.56
0.31
0.04
-0.16
-0.24
-0.17
-0.02
0.12
0.18
0.13
-0.01
-0.18
-0.36
-0.52
-0.64
-0.70
-0.66
-0.48
-0.18
0.20
0.55
0.79
0.86
0.77
0.57
0.33
0.09
-0.14
-0.35
-0.53
-0.66
-0.74
-0.75
-0.72
-0.68
-0.64
-0.59
-0.50
-0.35
-0.18
-0.03
0.04
-0.00
-0.11
-0.23
-0.28
-0.21
-0.02
0.25
0.53
0.74
0.84
0.82
0.71
0.58
0.52
0.59
0.78
1.02
1.19
1.21
1.05
0.78
0.49
0.27
0.13
0.04
-0.05
-0.17
-0.30
-0.40
-0.45
-0.48
-0.55
-0.71
-0.94
-1.18
-1.32
-1.33
-1.23
-1.06
-0.84
-0.57
-0.20
0.25
0.71
1.05
1.18
1.07
0.82
0.57
0.41
0.38
0.42
0.43
0.36
0.20
0.00
-0.18
-0.30
-0.34
-0.29
-0.17
-0.03
0.08
0.10
0.01
-0.20
-0.45
-0.65
-0.71
-0.59
-0.29
0.12
0.54
0.86
0.99
0.87
0.56
0.12
-0.30
-0.60
-0.72
-0.64
-0.39
-0.08
0.19
0.34
0.29
0.07
-0.26
-0.61
-0.85
-0.90
-0.72
-0.34
0.12
0.52
0.70
0.62
0.32
-0.08
-0.42
-0.58
-0.52
-0.29
-0.00
0.26
0.44
0.53
0.52
0.39
0.18
-0.09
-0.34
-0.50
-0.51
-0.40
-0.21
-0.00
0.18
0.34
0.44
0.49
0.49
0.44
0.39
0.39
0.47
0.61
0.76
0.80
0.67
0.37
-0.03
-0.41
-0.62
-0.61
-0.39
-0.04
0.28
0.46
0.44
0.23
-0.07
-0.34
-0.51
-0.55
-0.49
-0.41
-0.35
-0.36
-0.40
-0.41
-0.33
-0.16
0.04
0.18
0.14
-0.11
-0.45
-0.72
-0.75
-0.50
-0.10
0.22
0.29
0.10
-0.22
-0.45
-0.44
-0.22
0.05
0.19
0.14
-0.01
-0.08
0.02
0.28
0.51
0.55
0.29
-0.15
-0.55
-0.67
-0.43
0.07
0.59
0.89
0.89
0.64
0.34
0.16
0.13
0.18
0.18
0.05
-0.13
-0.22
-0.08
0.26
0.63
0.84
0.75
0.39
-0.10
-0.49
-0.66
-0.57
-0.33
-0.06
0.13
0.20
0.13
-0.07
-0.36
-0.67
-0.93
-1.06
-0.97
-0.65
-0.16
0.38
0.81
0.99
0.88
0.54
0.14
-0.17
-0.30
-0.26
-0.14
-0.02
0.03
-0.00
-0.09
-0.20
-0.31
-0.39
-0.38
-0.23
0.06
0.43
0.75
0.87
0.74
0.38
-0.05
-0.42
-0.61
-0.62
-0.49
-0.31
-0.17
-0.08
-0.01
0.09
0.26
0.50
0.75
0.94
0.97
0.82
0.52
0.16
-0.14
-0.30
-0.28
-0.14
0.04
0.20
0.29
0.35
0.41
0.49
0.56
0.55
0.39
0.04
-0.44
-0.89
-1.14
-1.06
-0.68
-0.14
0.33
0.52
0.37
-0.03
-0.50
-0.84
-0.94
-0.81
-0.58
-0.34
-0.19
-0.12
-0.06
0.02
0.15
0.27
0.29
0.19
-0.05
-0.34
-0.57
-0.66
-0.60
-0.41
-0.16
0.07
0.26
0.37
0.41
0.36
0.27
0.15
0.05
0.03
0.07
0.17
0.31
0.42
0.47
0.44
0.32
0.12
-0.11
-0.32
-0.43
-0.41
-0.24
-0.01
0.17
0.21
0.05
-0.26
-0.60
-0.84
-0.92
-0.84
-0.68
-0.51
-0.36
-0.18
0.10
0.48
0.93
1.28
1.41
1.28
0.92
0.46
0.05
-0.25
-0.41
-0.49
-0.52
-0.55
-0.58
-0.60
-0.61
-0.59
-0.56
-0.51
-0.46
-0.42
-0.39
-0.29
-0.10
0.21
0.62
1.01
1.26
1.28
1.06
0.72
0.39
0.18
0.13
0.19
0.28
0.35
0.42
0.52
0.66
0.80
0.81
0.59
0.13
-0.45
-0.95
-1.18
-1.03
-0.58
-0.04
0.34
0.46
0.31
0.05
-0.18
-0.27
-0.23
-0.15
-0.11
-0.12
-0.12
-0.07
0.05
0.18
0.20
0.08
-0.15
-0.35
-0.37
-0.14
0.29
0.78
1.14
1.25
1.08
0.72
0.28
-0.09
-0.33
-0.41
-0.35
-0.23
-0.13
-0.09
-0.14
-0.27
-0.47
-0.72
-0.98
-1.21
-1.31
-1.19
-0.83
-0.31
0.20
0.54
0.58
0.37
0.04
-0.23
-0.29
-0.15
0.13
0.44
0.68
0.84
0.88
0.82
0.62
0.30
-0.11
-0.51
-0.79
-0.86
-0.71
-0.40
-0.05
0.21
0.33
0.29
0.17
0.02
-0.11
-0.19
-0.23
-0.23
-0.19
-0.09
0.06
0.23
0.36
0.39
0.26
-0.01
-0.36
-0.67
-0.83
-0.80
-0.58
-0.27
0.03
0.21
0.23
0.11
-0.10
-0.36
-0.59
-0.72
-0.68
-0.42
0.03
0.58
1.07
1.35
1.36
1.11
0.70
0.25
-0.14
-0.38
-0.46
-0.38
-0.19
0.02
0.20
0.27
0.23
0.10
-0.06
-0.21
-0.34
-0.44
-0.50
-0.52
-0.48
-0.42
-0.36
-0.34
-0.38
-0.42
-0.39
-0.25
0.04
0.42
0.83
1.19
1.41
1.46
1.31
0.97
0.51
0.07
-0.25
-0.35
-0.26
-0.08
0.05
0.03
-0.15
-0.41
-0.61
-0.67
-0.55
-0.31
-0.04
0.17
0.30
0.34
0.34
0.34
0.38
0.44
0.50
0.52
0.46
0.28
0.03
-0.23
-0.42
-0.47
-0.40
-0.26
-0.17
-0.21
-0.42
-0.74
-1.02
-1.11
-0.90
-0.43
0.17
0.69
0.96
0.91
0.63
0.27
0.00
-0.10
-0.07
0.01
0.03
-0.06
-0.23
-0.38
-0.41
-0.23
0.12
0.54
0.85
0.92
0.67
0.19
-0.36
-0.77
-0.93
-0.86
-0.66
-0.50
-0.47
-0.53
-0.59
-0.55
-0.39
-0.18
-0.04
-0.01
-0.09
-0.19
-0.19
-0.06
0.19
0.50
0.79
1.00
1.11
1.08
0.90
0.59
0.18
-0.22
-0.50
-0.59
-0.48
-0.26
-0.03
0.17
0.34
0.54
0.80
1.11
1.34
1.39
1.17
0.71
0.12
-0.44
-0.89
-1.17
-1.27
-1.21
-1.00
-0.68
-0.32
-0.00
0.19
0.24
0.20
0.14
0.12
0.09
0.02
-0.14
-0.35
-0.53
-0.58
-0.46
-0.23
0.03
0.22
0.32
0.35
0.34
0.33
0.29
0.23
0.15
0.08
0.06
0.09
0.19
0.33
0.44
0.48
0.41
0.23
-0.04
-0.35
-0.64
-0.84
-0.91
-0.83
-0.63
-0.34
-0.04
0.19
0.30
0.26
0.11
-0.06
-0.18
-0.24
-0.26
-0.33
-0.50
-0.72
-0.90
-0.94
-0.82
-0.57
-0.30
-0.05
0.15
0.34
0.54
0.71
0.74
0.61
0.33
0.06
-0.06
0.05
0.34
0.62
0.76
0.73
0.59
0.47
0.42
0.38
0.28
0.08
-0.13
-0.23
-0.11
0.20
0.53
0.68
0.53
0.15
-0.24
-0.39
-0.22
0.15
0.47
0.52
0.25
-0.19
-0.54
-0.65
-0.51
-0.28
-0.16
-0.25
-0.50
-0.74
-0.81
-0.70
-0.46
-0.23
-0.09
-0.04
-0.01
0.06
0.15
0.21
0.20
0.09
-0.07
-0.18
-0.20
-0.12
0.03
0.17
0.27
0.33
0.37
0.43
0.49
0.52
0.48
0.36
0.19
0.02
-0.09
-0.10
-0.02
0.12
0.28
0.42
0.52
0.54
0.46
0.28
-0.01
-0.38
-0.74
-1.02
-1.15
-1.10
-0.92
-0.68
-0.45
-0.30
-0.27
-0.34
-0.48
-0.63
-0.72
-0.69
-0.50
-0.19
0.17
0.49
0.67
0.72
0.67
0.62
0.63
0.72
0.86
0.98
1.02
1.00
0.93
0.85
0.80
0.75
0.68
0.57
0.40
0.20
-0.02
-0.23
-0.41
-0.55
-0.64
-0.72
-0.79
-0.85
-0.88
-0.84
-0.70
-0.45
-0.11
0.24
0.55
0.73
0.75
0.61
0.37
0.13
-0.02
-0.02
0.14
0.35
0.50
0.47
0.25
-0.12
-0.50
-0.77
-0.88
-0.81
-0.63
-0.40
-0.18
-0.03
0.05
0.05
0.02
-0.03
-0.07
-0.09
-0.07
-0.03
0.02
0.09
0.16
0.25
0.37
0.49
0.56
0.52
0.35
0.05
-0.32
-0.67
-0.96
-1.16
-1.30
-1.37
-1.33
-1.11
-0.67
-0.03
0.67
1.25
1.55
1.50
1.17
0.70
0.24
-0.11
-0.33
-0.44
-0.47
-0.46
-0.44
-0.42
-0.37
-0.31
-0.22
-0.11
-0.02
-0.01
-0.09
-0.26
-0.44
-0.53
-0.43
-0.16
0.23
0.59
0.84
0.94
0.92
0.82
0.66
0.45
0.19
-0.08
-0.30
-0.40
-0.40
-0.35
-0.36
-0.47
-0.65
-0.77
-0.67
-0.27
0.37
1.06
1.58
1.74
1.52
1.06
0.58
0.25
0.15
0.20
0.26
0.20
-0.01
-0.33
-0.62
-0.81
-0.85
-0.76
-0.60
-0.44
-0.32
-0.26
-0.27
-0.31
-0.34
-0.33
-0.26
-0.12
0.04
0.15
0.17
0.10
-0.04
-0.21
-0.35
-0.44
-0.49
-0.49
-0.45
-0.39
-0.30
-0.19
-0.06
0.09
0.23
0.32
0.32
0.24
0.12
0.07
0.18
0.48
0.89
1.26
1.44
1.34
0.98
0.50
0.00
-0.42
-0.77
-1.08
-1.33
-1.48
-1.47
-1.27
-0.90
-0.47
-0.07
0.21
0.34
0.34
0.26
0.18
0.13
0.16
0.22
0.29
0.31
0.23
0.10
-0.03
-0.08
-0.04
0.09
0.25
0.40
0.52
0.64
0.78
0.90
0.96
0.88
0.66
0.34
0.05
-0.13
-0.17
-0.10
-0.03
-0.02
-0.11
-0.24
-0.36
-0.41
-0.37
-0.26
-0.12
0.02
0.16
0.28
0.36
0.34
0.18
-0.11
-0.47
-0.80
-1.00
-1.00
-0.77
-0.37
0.12
0.59
0.91
1.00
0.83
0.48
0.08
-0.21
-0.31
-0.22
-0.03
0.13
0.17
0.11
-0.04
-0.22
-0.41
-0.59
-0.72
-0.73
-0.54
-0.16
0.33
0.78
1.02
0.99
0.69
0.25
-0.21
-0.60
-0.85
-0.95
-0.93
-0.83
-0.65
-0.45
-0.23
-0.01
0.17
0.31
0.39
0.44
0.46
0.49
0.53
0.56
0.55
0.47
0.35
0.23
0.18
0.20
0.25
0.30
0.28
0.20
0.08
-0.07
-0.19
-0.25
-0.24
-0.15
-0.02
0.09
0.10
-0.01
-0.24
-0.51
-0.75
-0.90
-0.91
-0.76
-0.45
-0.04
0.41
0.76
0.90
0.76
0.40
-0.05
-0.41
-0.58
-0.52
-0.29
0.04
0.34
0.56
0.63
0.52
0.27
-0.03
-0.28
-0.38
-0.29
-0.02
0.33
0.67
0.91
0.98
0.85
0.55
0.13
-0.34
-0.72
-0.94
-0.96
-0.78
-0.49
-0.16
0.12
0.34
0.49
0.59
0.65
0.66
0.58
0.38
0.07
-0.27
-0.56
-0.71
-0.73
-0.68
-0.64
-0.67
-0.74
-0.77
-0.67
-0.47
-0.27
-0.20
-0.31
-0.54
-0.72
-0.70
-0.45
-0.05
0.32
0.52
0.54
0.46
0.39
0.41
0.47
0.49
0.38
0.12
-0.23
-0.55
-0.73
-0.72
-0.55
-0.26
0.08
0.40
0.64
0.76
0.71
0.56
0.39
0.34
0.47
0.74
1.01
1.11
0.93
0.51
0.02
-0.35
-0.47
-0.38
-0.18
-0.01
0.05
0.03
-0.01
-0.03
-0.04
-0.10
-0.23
-0.44
-0.65
-0.78
-0.76
-0.60
-0.34
-0.10
0.06
0.10
0.05
0.00
0.01
0.08
0.16
0.20
0.13
-0.01
-0.13
-0.15
-0.02
0.18
0.36
0.40
0.29
0.08
-0.12
-0.24
-0.23
-0.12
0.03
0.15
0.21
0.21
0.17
0.12
0.12
0.19
0.32
0.48
0.60
0.61
0.49
0.26
0.01
-0.15
-0.16
0.00
0.26
0.50
0.63
0.58
0.36
-0.01
-0.43
-0.85
-1.20
-1.44
-1.53
-1.49
-1.29
-0.96
-0.52
-0.04
0.38
0.63
0.63
0.36
-0.07
-0.51
-0.76
-0.74
-0.45
-0.02
0.41
0.70
0.84
0.83
0.73
0.56
0.33
0.05
-0.24
-0.43
-0.45
-0.25
0.09
0.41
0.58
0.52
0.29
0.05
-0.06
0.04
0.27
0.48
0.56
0.48
0.31
0.17
0.10
0.07
-0.04
-0.29
-0.65
-1.01
-1.22
-1.19
-0.91
-0.50
-0.07
0.28
0.49
0.58
0.59
0.54
0.44
0.28
0.09
-0.10
-0.23
-0.26
-0.21
-0.10
-0.01
0.06
0.11
0.17
0.28
0.44
0.59
0.68
0.64
0.49
0.27
0.04
-0.13
-0.19
-0.14
0.01
0.22
0.43
0.58
0.59
0.45
0.18
-0.17
-0.52
-0.81
-0.98
-1.00
-0.85
-0.56
-0.19
0.18
0.45
0.57
0.54
0.41
0.23
0.09
-0.00
-0.03
-0.03
-0.02
-0.03
-0.06
-0.11
-0.17
-0.20
-0.17
-0.06
0.09
0.22
0.27
0.23
0.10
-0.05
-0.18
-0.24
-0.20
-0.06
0.15
0.36
0.50
0.50
0.34
0.08
-0.21
-0.42
-0.51
-0.48
-0.42
-0.42
-0.48
-0.55
-0.52
-0.30
0.07
0.46
0.71
0.68
0.36
-0.14
-0.64
-0.98
-1.07
-0.92
-0.59
-0.17
0.25
0.61
0.85
0.95
0.87
0.65
0.34
0.02
-0.25
-0.42
-0.47
-0.38
-0.19
0.07
0.30
0.39
0.26
-0.08
-0.50
-0.86
-0.98
-0.84
-0.52
-0.18
0.05
0.13
0.12
0.13
0.19
0.28
0.32
0.26
0.10
-0.06
-0.13
-0.08
0.07
0.25
0.40
0.53
0.61
0.66
0.64
0.52
0.29
0.05
-0.10
-0.06
0.19
0.52
0.74
0.72
0.43
0.01
-0.34
-0.46
-0.32
-0.02
0.28
0.45
0.43
0.23
-0.07
-0.40
-0.71
-0.96
-1.09
-1.06
-0.89
-0.64
-0.41
-0.28
-0.26
-0.28
-0.22
-0.04
0.21
0.42
0.47
0.31
0.04
-0.21
-0.32
-0.25
-0.08
0.09
0.17
0.18
0.16
0.16
0.19
0.20
0.14
-0.01
-0.19
-0.32
-0.33
-0.24
-0.11
-0.02
-0.03
-0.14
-0.30
-0.45
-0.57
-0.64
-0.67
-0.66
-0.57
-0.40
-0.15
0.15
0.45
0.70
0.89
1.01
1.01
0.89
0.62
0.24
-0.17
-0.53
-0.76
-0.85
-0.84
-0.76
-0.63
-0.41
-0.11
0.23
0.55
0.79
0.89
0.89
0.84
0.77
0.67
0.52
0.31
0.08
-0.11
-0.18
-0.09
0.12
0.37
0.58
0.69
0.70
0.64
0.58
0.57
0.63
0.72
0.77
0.72
0.55
0.34
0.17
0.10
0.12
0.13
0.04
-0.19
-0.50
-0.78
-0.91
-0.85
-0.65
-0.43
-0.27
-0.19
-0.15
-0.11
-0.05
-0.02
-0.07
-0.20
-0.40
-0.59
-0.72
-0.75
-0.71
-0.63
-0.59
-0.62
-0.70
-0.80
-0.83
-0.73
-0.49
-0.16
0.18
0.43
0.57
0.60
0.61
0.65
0.75
0.87
0.93
0.92
0.81
0.66
0.51
0.39
0.32
0.25
0.16
0.02
-0.16
-0.37
-0.55
-0.68
-0.71
-0.66
-0.54
-0.38
-0.21
-0.05
0.09
0.22
0.30
0.32
0.25
0.09
-0.11
-0.30
-0.39
-0.37
-0.25
-0.08
0.05
0.13
0.14
0.12
0.08
0.00
-0.14
-0.35
-0.56
-0.69
-0.65
-0.44
-0.17
0.02
0.04
-0.10
-0.31
-0.46
-0.48
-0.36
-0.19
-0.04
0.05
0.10
0.16
0.26
0.38
0.50
0.57
0.58
0.56
0.52
0.47
0.43
0.38
0.32
0.24
0.14
0.04
-0.07
-0.16
-0.21
-0.17
-0.01
0.23
0.48
0.65
0.66
0.51
0.26
0.01
-0.17
-0.29
-0.38
-0.48
-0.61
-0.70
-0.71
-0.58
-0.34
-0.06
0.16
0.25
0.20
0.06
-0.08
-0.13
-0.06
0.11
0.32
0.48
0.55
0.53
0.46
0.36
0.26
0.14
0.00
-0.14
-0.26
-0.31
-0.26
-0.13
0.05
0.21
0.30
0.26
0.12
-0.10
-0.32
-0.48
-0.54
-0.51
-0.40
-0.24
-0.04
0.20
0.44
0.65
0.77
0.74
0.56
0.25
-0.10
-0.38
-0.51
-0.47
-0.29
-0.02
0.22
0.37
0.37
0.21
-0.02
-0.23
-0.32
-0.28
-0.13
0.03
0.11
0.08
-0.04
-0.18
-0.27
-0.28
-0.23
-0.17
-0.12
-0.09
-0.08
-0.05
-0.03
-0.04
-0.07
-0.09
-0.07
0.05
0.26
0.53
0.78
0.90
0.81
0.49
0.00
-0.51
-0.90
-1.02
-0.83
-0.41
0.08
0.48
0.66
0.64
0.51
0.40
0.38
0.40
0.38
0.24
-0.06
-0.43
-0.79
-1.05
-1.20
-1.25
-1.24
-1.20
-1.10
-0.94
-0.72
-0.48
-0.28
-0.12
-0.01
0.06
0.13
0.20
0.29
0.39
0.50
0.58
0.59
0.50
0.30
0.05
-0.17
-0.27
-0.23
-0.10
0.07
0.19
0.26
0.31
0.38
0.49
0.61
0.70
0.71
0.63
0.47
0.28
0.10
-0.07
-0.21
-0.32
-0.36
-0.29
-0.09
0.21
0.52
0.72
0.71
0.50
0.17
-0.13
-0.28
-0.25
-0.08
0.13
0.31
0.43
0.51
0.60
0.69
0.75
0.71
0.52
0.21
-0.16
-0.51
-0.73
-0.78
-0.66
-0.41
-0.15
0.03
0.06
-0.08
-0.30
-0.49
-0.56
-0.45
-0.17
0.16
0.44
0.53
0.42
0.15
-0.15
-0.35
-0.38
-0.24
-0.01
0.19
0.27
0.17
-0.07
-0.36
-0.61
-0.73
-0.66
-0.42
-0.08
0.25
0.44
0.44
0.26
-0.02
-0.28
-0.44
-0.49
-0.45
-0.38
-0.28
-0.15
-0.02
0.11
0.17
0.17
0.13
0.13
0.22
0.40
0.58
0.68
0.63
0.46
0.28
0.17
0.15
0.15
0.10
-0.06
-0.29
-0.46
-0.48
-0.34
-0.11
0.07
0.11
0.02
-0.13
-0.24
-0.25
-0.19
-0.13
-0.12
-0.16
-0.21
-0.18
-0.07
0.08
0.21
0.22
0.11
-0.09
-0.32
-0.52
-0.67
-0.74
-0.74
-0.63
-0.44
-0.14
0.21
0.59
0.94
1.23
1.41
1.46
1.36
1.12
0.78
0.46
0.23
0.14
0.15
0.15
0.08
-0.09
-0.28
-0.39
-0.34
-0.15
0.09
0.25
0.21
-0.03
-0.40
-0.77
-1.02
-1.08
-0.93
-0.61
-0.20
0.23
0.57
0.74
0.71
0.50
0.16
-0.22
-0.54
-0.73
-0.77
-0.71
-0.61
-0.58
-0.67
-0.84
-1.02
-1.10
-1.00
-0.74
-0.38
-0.02
0.27
0.50
0.68
0.82
0.86
0.71
0.33
-0.22
-0.79
-1.15
-1.19
-0.88
-0.38
0.11
0.42
0.49
0.40
0.30
0.30
0.41
0.56
0.66
0.63
0.47
0.27
0.13
0.10
0.19
0.31
0.38
0.37
0.31
0.25
0.27
0.34
0.41
0.42
0.35
0.23
0.17
0.20
0.32
0.45
0.48
0.36
0.12
-0.14
-0.27
-0.21
-0.00
0.23
0.32
0.19
-0.15
-0.56
-0.86
-0.92
-0.73
-0.34
0.10
0.48
0.75
0.88
0.90
0.81
0.62
0.30
-0.13
-0.61
-1.05
-1.36
-1.47
-1.38
-1.14
-0.80
-0.44
-0.08
0.27
0.62
0.94
1.18
1.26
1.14
0.82
0.39
-0.04
-0.34
-0.43
-0.37
-0.26
-0.22
-0.29
-0.42
-0.52
-0.50
-0.34
-0.12
0.08
0.21
0.27
0.32
0.38
0.46
0.49
0.43
0.26
0.03
-0.19
-0.32
-0.36
-0.32
-0.24
-0.16
-0.08
-0.04
-0.08
-0.20
-0.41
-0.62
-0.76
-0.73
-0.53
-0.23
0.07
0.24
0.25
0.13
-0.04
-0.18
-0.24
-0.23
-0.17
-0.09
-0.01
0.08
0.16
0.23
0.26
0.27
0.28
0.29
0.34
0.41
0.50
0.59
0.68
0.72
0.71
0.61
0.44
0.22
-0.01
-0.19
-0.31
-0.36
-0.38
-0.37
-0.35
-0.29
-0.18
-0.02
0.17
0.32
0.38
0.32
0.12
-0.19
-0.56
-0.91
-1.16
-1.21
-1.00
-0.55
0.02
0.54
0.82
0.78
0.46
0.01
-0.39
-0.61
-0.64
-0.55
-0.41
-0.27
-0.08
0.19
0.49
0.76
0.87
0.76
0.50
0.22
0.04
0.00
0.04
0.05
-0.01
-0.14
-0.24
-0.25
-0.17
-0.08
-0.08
-0.20
-0.39
-0.54
-0.55
-0.39
-0.13
0.14
0.32
0.41
0.44
0.48
0.56
0.67
0.77
0.78
0.69
0.50
0.30
0.15
0.11
0.12
0.13
0.06
-0.08
-0.23
-0.33
-0.32
-0.23
-0.16
-0.19
-0.35
-0.59
-0.80
-0.86
-0.69
-0.32
0.17
0.62
0.91
0.96
0.78
0.45
0.10
-0.14
-0.22
-0.13
0.04
0.20
0.28
0.20
-0.00
-0.29
-0.59
-0.82
-0.93
-0.88
-0.68
-0.34
0.08
0.49
0.81
0.93
0.82
0.50
0.08
-0.33
-0.63
-0.75
-0.71
-0.53
-0.24
0.09
0.42
0.64
0.69
0.53
0.20
-0.17
-0.40
-0.39
-0.09
0.35
0.75
0.94
0.83
0.51
0.14
-0.11
-0.17
-0.09
0.01
0.03
-0.07
-0.25
-0.42
-0.51
-0.47
-0.34
-0.13
0.12
0.35
0.53
0.60
0.55
0.37
0.13
-0.11
-0.30
-0.41
-0.48
-0.51
-0.50
-0.43
-0.33
-0.21
-0.13
-0.15
-0.26
-0.41
-0.52
-0.54
-0.44
-0.25
-0.07
0.05
0.05
-0.05
-0.19
-0.31
-0.34
-0.29
-0.17
-0.05
0.00
-0.02
-0.09
-0.14
-0.13
-0.04
0.11
0.28
0.40
0.43
0.38
0.26
0.12
0.02
-0.03
-0.00
0.10
0.25
0.43
0.62
0.77
0.84
0.84
0.78
0.76
0.82
0.99
1.21
1.37
1.39
1.23
0.93
0.54
0.11
-0.35
-0.83
-1.29
-1.66
-1.87
-1.87
-1.68
-1.38
-1.04
-0.69
-0.36
-0.08
0.11
0.16
0.05
-0.16
-0.40
-0.55
-0.59
-0.52
-0.42
-0.36
-0.35
-0.36
-0.35
-0.31
-0.22
-0.14
-0.08
-0.04
-0.01
0.03
0.09
0.16
0.20
0.18
0.09
-0.01
-0.08
-0.06
0.05
0.21
0.33
0.39
0.39
0.40
0.47
0.59
0.73
0.80
0.75
0.62
0.45
0.33
0.25
0.19
0.10
-0.05
-0.25
-0.43
-0.53
-0.52
-0.44
-0.33
-0.22
-0.15
-0.11
-0.08
-0.05
-0.03
-0.04
-0.10
-0.19
-0.27
-0.32
-0.29
-0.19
-0.05
0.10
0.22
0.30
0.34
0.37
0.40
0.41
0.39
0.32
0.20
0.04
-0.09
-0.14
-0.07
0.11
0.35
0.56
0.68
0.68
0.59
0.48
0.37
0.28
0.22
0.16
0.08
-0.01
-0.14
-0.29
-0.45
-0.59
-0.67
-0.66
-0.58
-0.48
-0.39
-0.34
-0.32
-0.29
-0.24
-0.19
-0.16
-0.18
-0.21
-0.19
-0.09
0.10
0.26
0.31
0.18
-0.06
-0.29
-0.38
-0.31
-0.19
-0.11
-0.16
-0.27
-0.34
-0.23
0.09
0.51
0.89
1.05
0.93
0.57
0.09
-0.36
-0.65
-0.69
-0.49
-0.12
0.27
0.58
0.71
0.68
0.56
0.43
0.32
0.24
0.18
0.14
0.13
0.16
0.21
0.25
0.28
0.30
0.35
0.41
0.44
0.37
0.15
-0.17
-0.50
-0.74
-0.80
-0.70
-0.47
-0.18
0.13
0.43
0.67
0.80
0.76
0.55
0.24
-0.11
-0.39
-0.57
-0.66
-0.68
-0.67
-0.65
-0.61
-0.57
-0.50
-0.41
-0.29
-0.14
-0.01
0.04
-0.02
-0.22
-0.51
-0.77
-0.89
-0.78
-0.47
-0.05
0.33
0.56
0.59
0.46
0.25
0.07
-0.03
-0.08
-0.12
-0.16
-0.20
-0.20
-0.14
-0.03
0.08
0.15
0.13
0.06
0.00
0.04
0.19
0.44
0.71
0.93
1.03
1.01
0.88
0.70
0.51
0.38
0.33
0.37
0.46
0.52
0.48
0.31
0.03
-0.28
-0.53
-0.65
-0.63
-0.50
-0.30
-0.09
0.06
0.11
0.04
-0.14
-0.36
-0.55
-0.61
-0.51
-0.29
-0.02
0.19
0.28
0.25
0.16
0.05
0.00
0.03
0.14
0.30
0.47
0.56
0.54
0.34
-0.01
-0.44
-0.81
-0.98
-0.92
-0.65
-0.32
-0.04
0.11
0.13
0.08
0.03
-0.03
-0.16
-0.40
-0.70
-0.95
-1.01
-0.79
-0.33
0.24
0.72
1.01
1.06
0.90
0.60
0.22
-0.14
-0.42
-0.55
-0.52
-0.38
-0.20
-0.08
-0.06
-0.13
-0.25
-0.35
-0.41
-0.44
-0.44
-0.41
-0.33
-0.18
0.05
0.31
0.53
0.65
0.63
0.49
0.27
0.05
-0.13
-0.28
-0.40
-0.49
-0.52
-0.44
-0.21
0.13
0.48
0.73
0.77
0.60
0.31
0.01
-0.21
-0.31
-0.31
-0.27
-0.22
-0.18
-0.12
-0.04
0.07
0.21
0.34
0.44
0.48
0.45
0.37
0.25
0.11
-0.03
-0.15
-0.25
-0.31
-0.31
-0.25
-0.15
-0.05
0.00
0.01
-0.01
0.01
0.10
0.27
0.49
0.69
0.78
0.73
0.55
0.28
0.03
-0.13
-0.16
-0.10
-0.02
0.00
-0.09
-0.29
-0.49
-0.61
-0.57
-0.36
-0.08
0.13
0.18
0.06
-0.13
-0.26
-0.22
0.01
0.32
0.57
0.66
0.57
0.38
0.20
0.10
0.12
0.19
0.26
0.26
0.16
-0.01
-0.23
-0.44
-0.61
-0.67
-0.61
-0.44
-0.22
-0.02
0.09
0.09
0.02
-0.03
0.04
0.24
0.50
0.69
0.68
0.43
0.02
-0.39
-0.64
-0.63
-0.39
-0.01
0.36
0.61
0.72
0.69
0.58
0.44
0.29
0.12
-0.06
-0.22
-0.31
-0.31
-0.21
-0.04
0.12
0.21
0.20
0.09
-0.11
-0.36
-0.60
-0.78
-0.86
-0.85
-0.77
-0.69
-0.63
-0.59
-0.54
-0.45
-0.28
-0.07
0.12
0.24
0.27
0.23
0.12
-0.04
-0.26
-0.49
-0.67
-0.74
-0.67
-0.49
-0.27
-0.08
0.02
0.05
0.06
0.13
0.27
0.48
0.70
0.87
0.92
0.82
0.57
0.20
-0.20
-0.54
-0.73
-0.75
-0.60
-0.34
-0.04
0.21
0.39
0.48
0.49
0.49
0.52
0.62
0.77
0.95
1.11
1.21
1.25
1.24
1.17
1.03
0.81
0.49
0.11
-0.27
-0.56
-0.68
-0.65
-0.52
-0.37
-0.27
-0.26
-0.34
-0.47
-0.61
-0.72
-0.76
-0.72
-0.60
-0.41
-0.20
-0.04
0.03
0.01
-0.09
-0.21
-0.29
-0.31
-0.26
-0.13
0.08
0.36
0.67
0.97
1.17
1.21
1.05
0.71
0.30
-0.09
-0.37
-0.51
-0.52
-0.47
-0.36
-0.18
0.08
0.39
0.63
0.67
0.38
-0.22
-0.99
-1.69
-2.10
-2.11
-1.74
-1.12
-0.42
0.20
0.66
0.90
0.93
0.80
0.58
0.37
0.23
0.17
0.16
0.17
0.15
0.11
0.05
-0.03
-0.14
-0.27
-0.39
-0.46
-0.45
-0.38
-0.28
-0.20
-0.13
-0.05
0.09
0.26
0.41
0.46
0.39
0.25
0.14
0.11
0.20
0.34
0.47
0.57
0.65
0.74
0.85
0.90
0.82
0.56
0.14
-0.31
-0.65
-0.78
-0.73
-0.58
-0.45
