1541859384.00
64.000000
-0.00
-0.00
-0.00
-0.00
-0.00
-0.00
-0.00
-0.00
-0.00
-0.00
0.00
0.01
0.01
-0.00
-0.03
-0.05
-0.05
0.00
0.13
0.36
0.66
1.01
1.37
1.72
2.06
2.40
2.79
3.24
3.80
4.42
5.07
5.69
6.24
6.76
7.29
7.92
8.70
9.72
10.91
12.15
13.34
14.42
15.43
16.54
17.96
19.84
22.39
25.44
28.70
31.88
34.82
37.60
40.55
44.10
48.59
54.41
61.21
68.47
75.60
82.27
88.57
94.99
102.28
110.97
121.64
133.77
146.59
159.20
171.04
182.18
193.30
205.77
218.33
233.29
251.25
272.30
295.22
317.09
333.61
340.20
333.53
312.78
280.35
240.10
196.33
152.22
109.31
67.85
27.73
-10.76
-46.84
-79.18
-107.09
-130.29
-149.17
-164.17
-175.45
-182.87
-186.10
-185.14
-180.21
-172.32
-162.72
-152.76
-143.46
-135.34
-128.47
-122.17
-115.87
-109.10
-101.87
-94.49
-87.46
-81.29
-76.43
-73.13
-71.40
-71.20
-72.25
-74.20
-76.68
-79.41
-82.23
-85.07
-88.02
-91.09
-94.06
-96.50
-97.78
-97.39
-95.21
-91.78
-88.17
-85.75
-85.56
-87.88
-92.07
-96.80
-100.79
-103.50
-105.50
-108.18
-113.24
-121.65
-133.13
-146.44
-160.08
-173.13
-185.63
-197.69
-208.70
-217.41
-222.42
-223.13
-220.75
-217.66
-215.93
-215.50
-213.31
-204.42
-184.94
-155.14
-120.04
-87.62
-64.87
-54.10
-52.11
-52.14
-47.87
-36.69
-20.80
-5.44
4.73
8.67
8.72
8.91
11.96
16.93
20.28
18.41
10.02
-2.11
-11.92
-13.52
-4.37
13.33
32.91
46.66
50.01
43.60
32.96
26.06
28.38
39.55
53.91
63.12
60.71
46.17
24.94
5.18
-6.59
-8.48
-3.91
0.95
0.94
-4.95
-13.48
-18.77
-16.19
-5.58
8.81
20.53
24.30
19.35
10.10
3.31
4.52
14.90
30.05
42.52
45.97
38.45
23.28
7.82
-1.38
-2.18
2.68
7.11
5.46
-3.66
-16.32
-25.65
-25.31
-13.67
4.47
20.73
27.78
23.24
11.19
-0.24
-4.04
1.51
12.13
19.97
18.52
6.75
-10.23
-24.16
-27.85
-19.67
-4.44
9.45
15.00
10.07
-1.68
-13.38
-19.65
-19.85
-17.79
-18.83
-25.47
-35.00
-40.82
-36.93
-21.99
-0.80
17.87
26.73
24.73
17.46
13.86
20.44
36.91
56.06
68.33
67.33
54.07
36.67
25.88
28.62
44.26
65.02
80.63
84.25
76.55
65.05
59.58
66.27
84.24
105.81
121.08
123.31
112.56
94.97
79.30
71.58
71.85
75.01
73.94
63.98
45.97
26.10
12.20
9.49
17.85
31.14
40.72
40.01
28.31
10.95
-3.29
-7.20
0.21
13.30
23.32
23.80
14.53
2.52
-2.74
4.43
22.36
42.09
52.47
47.16
28.59
6.05
-9.31
-10.78
0.17
15.76
26.97
28.54
21.28
11.11
4.86
6.08
13.25
20.88
22.79
15.91
2.81
-9.68
-14.15
-6.83
9.68
27.61
38.40
37.89
28.60
18.54
15.90
23.50
37.27
48.23
47.57
32.26
7.26
-17.35
-31.39
-29.65
-14.54
5.46
20.58
24.63
17.81
6.19
-2.45
-3.47
1.76
6.89
4.75
-7.58
-26.28
-42.41
-47.10
-37.36
-18.27
-0.34
6.51
-1.15
-18.02
-33.30
-37.03
-25.85
-4.90
14.86
22.81
14.25
-7.59
-33.48
-53.08
-60.21
-55.50
-44.97
-35.99
-32.99
-35.04
-36.83
-32.32
-19.14
-0.34
17.38
27.82
29.29
25.94
25.16
32.44
47.17
63.14
71.63
66.64
48.85
25.68
7.02
0.15
6.87
22.49
38.56
47.22
44.96
33.35
18.09
5.44
-1.12
-3.03
-5.31
-12.82
-26.37
-41.30
-49.84
-45.30
-27.09
-2.26
18.16
24.89
15.33
-5.07
-25.69
-37.16
-36.73
-28.97
-22.65
-25.01
-36.88
-51.72
-59.82
-54.32
-35.86
-12.92
3.27
5.56
-4.36
-16.96
-20.34
-8.12
16.62
42.77
57.64
54.23
35.18
11.05
-6.41
-10.58
-3.31
7.04
11.19
4.90
-8.49
-20.77
-23.67
-14.46
2.06
16.61
21.20
14.16
1.37
-6.95
-3.08
13.71
36.57
54.91
60.44
51.93
35.43
19.78
11.60
11.56
14.78
14.46
6.61
-7.21
-20.82
-27.15
-22.62
-9.35
5.81
14.85
12.84
0.80
-14.83
-25.94
-26.62
-16.01
1.04
16.61
24.00
20.85
9.92
-2.54
-10.43
-11.06
-6.22
-0.88
-0.18
-6.14
-16.15
-24.54
-25.77
-17.86
-3.67
10.30
17.34
14.18
3.00
-9.98
-18.03
-17.51
-9.71
-0.13
4.74
1.27
-8.98
-20.28
-26.23
-23.37
-13.25
-1.86
3.97
0.83
-8.87
-18.51
-21.26
-14.02
0.51
15.00
21.83
17.48
4.68
-9.35
-17.24
-15.48
-6.22
3.92
8.11
3.58
-6.56
-15.49
-16.99
-9.07
4.40
15.55
17.31
7.72
-8.55
-22.66
-26.70
-18.00
-1.03
14.83
20.57
12.77
-4.28
-21.14
-28.35
-21.82
-5.27
11.92
19.97
14.47
-1.32
-18.56
-28.23
-26.28
-15.84
-4.71
-0.05
-3.80
-11.55
-15.60
-10.65
2.54
17.21
24.40
18.77
2.19
-16.87
-28.47
-27.10
-15.05
-1.11
5.12
-0.71
-14.81
-27.58
-29.54
-17.12
4.95
26.18
36.36
31.20
14.78
-3.23
-12.91
-9.69
3.50
18.51
27.34
26.72
20.15
15.07
18.10
30.76
48.13
61.58
63.54
52.22
32.75
14.48
5.82
9.76
22.17
34.47
38.78
32.53
19.34
6.26
-0.34
0.63
4.51
4.35
-4.12
-18.89
-32.19
-35.42
-24.42
-2.56
19.97
31.72
26.60
7.02
-17.01
-33.06
-32.81
-16.29
7.99
27.44
31.78
18.54
-6.07
-30.76
-45.25
-45.80
-36.79
-27.41
-26.17
-35.37
-49.89
-60.63
-59.75
-45.27
-21.89
2.07
19.27
27.17
28.74
29.67
34.26
42.55
50.01
50.60
40.66
21.92
1.27
-12.64
-14.20
-4.37
9.61
18.19
15.27
1.78
-14.86
-25.33
-23.97
-12.13
2.54
10.90
7.59
-6.12
-23.27
-35.13
-35.92
-25.92
-11.14
-0.03
0.99
-8.68
-23.42
-34.76
-36.18
-27.07
-13.09
-2.54
-1.33
-8.66
-17.61
-19.44
-9.26
10.47
31.03
42.55
40.18
27.09
12.62
6.56
13.50
30.45
48.79
58.85
55.38
40.09
20.23
4.22
-2.69
-0.90
4.14
5.60
-0.52
-13.33
-27.53
-36.25
-35.14
-25.29
-12.72
-5.34
-8.54
-21.76
-38.52
-49.95
-50.02
-38.78
-22.10
-7.70
0.00
2.63
6.15
16.01
33.07
52.26
64.93
63.78
47.25
20.69
-6.21
-24.26
-29.42
-23.88
-14.26
-7.78
-8.28
-14.53
-21.52
-23.50
-17.75
-6.59
4.11
8.87
6.67
1.99
1.96
11.57
29.75
49.29
60.28
55.67
35.53
7.22
-18.37
-32.51
-33.10
-24.81
-15.69
-12.41
-16.62
-24.86
-31.21
-31.09
-23.84
-13.31
-5.14
-3.19
-6.62
-10.42
-8.80
1.07
16.76
31.90
39.41
35.50
21.67
4.24
-8.96
-12.93
-7.99
1.10
8.18
9.35
5.26
0.06
-1.42
3.29
12.51
20.85
22.36
14.34
-0.52
-15.14
-21.90
-17.26
-3.98
10.29
16.93
11.03
-5.73
-25.76
-39.69
-41.19
-30.59
-14.23
-0.47
5.49
4.01
-0.01
-0.92
3.97
12.58
19.24
18.31
7.61
-9.60
-26.08
-34.33
-30.84
-18.01
-2.70
7.77
9.80
4.99
-1.12
-2.86
2.18
11.25
18.09
16.41
3.94
-15.50
-33.68
-42.36
-37.47
-21.17
-0.48
16.70
25.59
26.25
22.76
20.24
21.67
25.95
28.74
25.39
14.39
-1.01
-14.21
-18.95
-12.97
0.58
14.96
23.69
24.07
18.26
11.80
10.06
14.97
23.57
29.68
27.30
14.55
-4.77
-23.02
-32.67
-30.15
-17.70
-1.99
9.76
13.47
9.78
3.10
-1.61
-1.82
0.85
1.89
-2.97
-14.58
-29.16
-40.04
-41.31
-31.35
-14.11
2.84
12.51
12.55
6.32
0.65
1.33
9.47
20.77
28.33
26.95
16.27
1.15
-11.44
-16.17
-11.96
-2.38
6.23
8.05
1.11
-11.42
-22.62
-25.48
-17.32
-1.96
12.45
18.34
13.63
2.66
-6.88
-9.52
-5.45
0.03
0.57
-7.00
-20.76
-34.78
-42.52
-39.94
-27.41
-9.43
7.08
15.92
14.86
7.42
1.12
3.22
15.80
33.70
47.51
49.55
39.02
22.33
8.41
3.00
5.26
8.95
7.28
-2.73
-18.45
-33.53
-41.44
-38.70
-26.44
-10.06
3.43
8.61
4.79
-3.24
-7.66
-2.38
12.57
30.51
42.05
40.97
28.36
11.78
0.02
-2.35
2.64
8.31
7.91
-1.30
-16.45
-30.93
-37.83
-33.37
-18.73
-0.00
14.70
19.37
13.67
3.37
-2.92
0.88
13.87
28.58
35.77
30.35
14.54
-3.78
-16.47
-19.89
-16.38
-11.91
-12.06
-18.94
-30.16
-40.26
-43.26
-35.62
-18.20
3.20
20.19
26.09
20.22
8.81
1.44
4.78
17.77
31.96
37.25
28.78
10.34
-8.71
-19.86
-20.84
-16.31
-13.82
-18.40
-29.68
-42.97
-52.31
-53.72
-46.39
-32.69
-17.12
-4.98
-0.55
-4.47
-12.53
-16.85
-10.59
7.30
29.99
46.33
47.96
35.59
19.09
10.87
17.46
34.75
50.92
54.77
43.35
23.56
6.64
0.40
4.48
11.77
14.03
7.61
-5.11
-18.31
-26.59
-27.68
-22.38
-13.49
-4.33
1.70
2.04
-3.31
-10.77
-14.00
-7.65
8.63
28.39
41.67
41.44
29.00
13.88
7.45
15.14
32.03
46.04
46.13
30.16
6.33
-12.81
-18.92
-13.28
-5.01
-4.33
-15.35
-33.88
-51.28
-60.51
-60.27
-54.32
-48.03
-44.52
-43.62
-43.60
-43.10
-41.67
-38.69
-32.87
-23.01
-9.84
2.94
10.35
9.88
4.31
0.57
5.26
19.32
36.36
46.37
42.96
28.65
13.99
10.80
23.76
46.62
65.74
69.05
54.39
31.06
13.51
11.77
24.80
41.50
48.38
38.53
15.73
-9.03
-25.29
-29.63
-26.68
-24.84
-30.05
-42.17
-56.21
-66.26
-69.11
-65.09
-56.78
-47.20
-38.83
-33.71
-33.03
-36.03
-38.87
-35.98
-23.39
-2.42
19.51
32.53
30.81
17.48
3.51
1.24
15.71
40.62
61.79
66.15
50.99
26.22
8.28
9.38
29.20
54.88
68.95
60.95
34.49
5.30
-8.72
1.12
28.77
56.71
67.02
52.33
20.29
-11.57
-26.78
-19.93
0.46
17.73
17.88
-1.88
-31.93
-56.54
-63.95
-53.20
-34.17
-20.75
-21.81
-36.16
-53.78
-62.75
-57.08
-40.22
-22.34
-13.41
-16.91
-27.97
-36.83
-35.51
-23.09
-6.27
5.39
5.53
-4.66
-17.16
-21.85
-12.83
7.73
30.59
44.30
41.59
23.33
-1.51
-20.24
-22.64
-6.23
22.36
50.38
65.02
59.81
37.88
10.79
-7.05
-5.84
14.23
42.57
63.44
64.28
42.85
8.99
-20.08
-28.91
-12.27
21.44
54.36
68.50
55.37
20.63
-18.78
-43.52
-41.93
-16.23
19.00
44.55
46.62
23.60
-13.71
-48.26
-65.42
-60.11
-38.18
-12.35
4.82
6.70
-5.59
-25.44
-45.08
-59.28
-66.54
-67.62
-63.23
-52.86
-35.84
-13.59
9.04
24.50
25.98
11.73
-12.52
-34.88
-42.54
-28.16
5.71
47.01
79.48
90.35
76.38
45.35
11.91
-9.67
-11.92
2.95
25.28
43.31
48.79
39.98
20.78
-2.45
-24.45
-42.57
-55.92
-63.53
-63.06
-51.86
-29.55
-0.60
25.87
39.04
31.96
6.02
-28.23
-54.90
-59.84
-37.36
6.28
55.16
90.56
99.17
78.69
38.46
-5.23
-36.44
-46.19
-35.20
-12.04
11.61
26.31
27.98
17.72
-0.31
-21.73
-43.15
-61.69
-73.89
-75.46
-62.60
-34.65
3.60
42.00
68.00
72.06
52.45
17.08
-19.13
-40.41
-37.17
-10.41
28.59
63.53
80.25
72.59
44.20
5.68
-30.89
-57.07
-70.25
-72.17
-65.78
-52.48
-31.72
-3.27
29.92
60.35
78.01
75.23
51.34
14.38
-21.50
-42.13
-39.66
-16.08
18.05
49.09
66.44
66.64
53.10
32.64
10.92
-10.06
-31.34
-53.66
-74.48
-87.26
-84.14
-60.55
-19.06
29.59
69.99
88.31
78.41
44.74
0.26
-39.19
-61.58
-63.17
-48.70
-27.44
-7.93
6.10
15.94
24.88
34.00
39.96
36.54
19.27
-10.20
-42.64
-64.61
-64.81
-40.14
2.05
46.86
78.49
86.95
71.68
40.19
3.32
-29.74
-54.55
-70.83
-79.76
-81.43
-73.78
-54.27
-22.87
15.54
51.30
73.13
73.14
51.05
15.53
-18.98
-38.37
-34.91
-10.59
24.04
54.95
70.98
68.19
50.16
24.75
-0.44
-21.31
-37.53
-50.40
-59.81
-62.76
-54.48
-31.78
3.75
44.19
77.24
90.99
79.26
44.89
-1.18
-44.54
-73.39
-82.95
-76.15
-60.51
-43.25
-27.42
-11.45
7.65
30.25
51.61
63.27
57.32
31.64
-7.52
-47.51
-74.86
-81.41
-67.62
-41.37
-13.29
8.72
23.06
33.53
45.25
59.94
73.86
79.21
68.59
39.84
-1.39
-43.39
-73.48
-83.42
-72.96
-48.98
-21.70
0.67
15.50
25.44
34.76
45.11
53.39
53.18
39.02
10.98
-23.37
-51.64
-62.36
-50.64
-21.07
14.59
42.94
55.39
51.96
39.99
28.97
24.50
25.09
23.48
11.70
-13.13
-45.72
-74.78
-88.61
-81.20
-55.40
-20.92
10.73
32.25
43.75
51.27
61.76
77.81
95.22
104.77
97.14
68.56
23.80
-25.54
-66.49
-90.55
-97.06
-92.14
-84.17
-78.11
-72.43
-60.71
-36.69
0.54
44.38
82.95
104.69
104.14
84.96
57.82
34.64
22.40
19.62
17.65
6.09
-20.51
-58.55
-96.64
-121.42
-124.61
-106.76
-76.54
-45.36
-20.90
-3.38
13.03
34.96
64.26
95.73
119.25
125.05
109.61
78.28
42.82
15.38
2.24
0.67
0.75
-8.68
-33.14
-68.68
-103.76
-125.65
-126.99
-109.13
-80.68
-51.98
-29.16
-11.39
7.04
31.63
62.75
94.54
117.35
122.85
108.80
80.78
49.44
25.03
12.21
7.87
3.19
-11.19
-39.35
-77.09
-113.80
-138.21
-144.09
-132.91
-112.24
-90.73
-73.06
-57.67
-38.94
-12.08
22.82
60.14
91.41
109.80
113.85
108.32
101.21
99.11
103.33
108.89
107.30
91.19
58.83
16.15
-25.61
-55.48
-68.38
-67.82
-63.71
-66.71
-81.92
-105.69
-127.60
-136.62
-127.30
-102.53
-71.14
-42.43
-20.84
-4.15
13.98
38.96
70.96
104.16
130.13
142.75
141.62
132.30
123.01
119.80
122.98
126.69
122.32
103.61
70.54
29.93
-7.76
-33.91
-46.38
-50.83
-57.23
-73.79
-101.74
-134.15
-159.60
-168.41
-157.99
-134.43
-108.90
-91.17
-84.24
-83.20
-78.89
-63.68
-35.93
-1.17
31.19
53.50
64.17
68.33
74.22
88.09
110.37
134.96
152.39
155.22
142.50
120.65
99.90
88.82
89.53
96.47
99.17
88.11
60.41
22.09
-14.79
-38.51
-43.88
-35.17
-24.02
-23.26
-39.65
-69.75
-101.79
-122.30
-123.62
-108.22
-87.56
-75.66
-81.16
-101.99
-126.67
-141.10
-136.54
-114.49
-85.71
-63.89
-57.69
-65.82
-78.21
-82.42
-71.35
-47.12
-19.37
0.67
6.98
1.98
-5.44
-5.76
4.94
22.68
38.52
44.29
37.83
24.48
13.78
13.62
25.49
43.60
58.67
63.85
58.54
48.54
42.12
44.58
54.99
66.53
70.63
62.14
42.55
19.21
1.30
-5.23
-0.74
8.40
13.42
8.13
-7.47
-27.18
-42.38
-46.74
-39.63
-26.52
-15.75
-13.61
-20.62
-31.10
-36.77
-31.78
-16.04
4.47
20.81
26.16
19.81
7.82
-0.49
2.08
16.66
37.68
55.83
63.18
57.76
44.75
33.52
32.18
43.15
62.00
79.92
88.49
84.47
71.67
58.70
53.82
60.46
75.58
91.64
101.01
100.13
91.45
81.50
76.50
78.57
84.44
87.74
83.00
69.13
50.17
32.74
21.90
17.93
16.14
9.98
-4.50
-25.81
-47.22
-60.62
-61.24
-51.03
-38.06
-32.48
-40.81
-62.22
-88.78
-109.54
-116.62
-109.70
-96.45
-88.65
-95.85
-119.81
-153.08
-182.56
-196.06
-188.67
-165.27
-137.84
-118.72
-113.58
-118.28
-121.69
-112.50
-86.08
-47.41
-8.30
19.76
32.20
34.11
36.62
49.87
76.90
111.93
143.81
162.77
165.68
157.25
146.49
140.87
141.98
145.17
142.82
129.18
103.95
72.58
43.12
21.73
9.27
1.06
-10.28
-30.55
-60.30
-93.90
-122.22
-137.32
-136.77
-125.27
-112.31
-107.15
-113.44
-126.88
-137.46
-135.15
-115.65
-83.09
-47.67
-19.94
-4.85
0.78
5.77
18.77
42.84
73.68
102.44
121.25
127.70
125.93
123.33
125.40
132.26
138.51
136.71
122.43
97.24
68.27
44.37
30.94
26.73
24.25
13.62
-11.90
-51.88
-98.39
-139.34
-164.28
-169.36
-159.12
-143.92
-134.60
-136.72
-147.35
-156.70
-153.44
-130.55
-89.36
-38.82
9.02
44.95
67.12
80.90
94.59
114.06
139.15
163.75
179.95
182.65
172.77
156.33
140.45
128.83
119.44
105.75
81.32
44.45
0.28
-40.91
-68.90
-78.78
-73.89
-64.13
-60.56
-69.58
-89.26
-110.38
-121.52
-115.34
-92.60
-61.62
-33.51
-15.91
-9.14
-6.64
0.55
17.99
44.36
71.80
90.42
94.14
84.36
68.96
57.84
57.31
66.59
78.16
82.10
72.00
48.86
20.73
-2.08
-12.68
-11.64
-7.12
-10.56
-30.01
-65.16
-106.78
-141.50
-158.87
-156.52
-141.15
-124.58
-116.71
-119.48
-125.79
-124.06
-105.29
-68.42
-21.09
24.38
57.63
75.59
83.44
90.25
102.72
120.75
137.56
143.69
132.73
105.35
69.59
36.48
14.06
3.29
-1.84
-10.28
-28.07
-54.32
-80.90
-96.82
-94.76
-75.31
-46.52
-19.19
-0.91
7.98
13.66
24.19
43.74
69.49
93.45
107.82
109.61
102.05
92.23
85.98
84.18
81.71
70.33
44.01
2.70
-46.58
-92.34
-123.07
-132.16
-120.63
-96.42
-70.35
-50.63
-39.32
-32.06
-21.63
-3.39
20.65
41.92
49.37
35.77
2.59
-40.04
-78.10
-100.29
-103.43
-93.10
-79.52
-71.15
-69.46
-68.26
-58.16
-32.59
7.42
52.90
91.53
113.60
117.00
107.52
94.73
85.99
82.47
79.11
68.27
45.16
11.31
-25.23
-53.58
-65.92
-61.46
-46.56
-30.87
-21.94
-20.95
-22.32
-17.56
-0.85
26.65
57.24
81.24
92.50
91.40
84.20
78.16
76.65
76.47
69.50
48.10
10.30
-37.70
-83.49
-113.54
-119.38
-101.53
-69.13
-35.41
-10.84
1.33
5.64
10.58
22.24
39.75
54.74
55.79
35.25
-5.23
-54.62
-97.68
-122.14
-124.47
-110.69
-91.90
-77.39
-69.32
-61.85
-45.98
-15.75
26.97
72.30
106.81
120.21
110.60
85.08
55.67
32.53
18.97
10.92
0.54
-17.27
-40.63
-60.76
-66.82
-52.60
-20.61
18.75
52.66
72.16
76.08
70.22
62.34
56.81
51.84
41.29
19.59
-13.61
-51.57
-83.02
-97.23
-89.37
-62.94
-28.05
3.72
24.99
35.39
40.31
46.41
56.42
66.61
68.59
54.03
20.37
-26.25
-72.92
-105.44
-114.47
-99.40
-67.96
-32.04
-2.05
17.34
27.74
33.82
38.89
41.83
37.44
20.11
-11.38
-50.62
-84.90
-100.57
-89.92
-55.31
-8.53
34.68
61.94
69.06
60.33
44.37
28.24
14.03
-0.62
-18.76
-39.92
-58.40
-65.46
-54.28
-24.47
16.40
55.44
79.98
82.72
64.62
33.82
1.56
-22.83
-35.35
-37.54
-33.79
-27.86
-20.57
-10.17
5.09
23.79
40.29
46.41
35.47
6.59
-33.18
-70.88
-92.96
-91.15
-66.06
-26.64
14.14
44.91
60.28
61.74
54.54
43.52
29.98
11.74
-13.81
-45.88
-77.91
-98.99
-98.59
-72.26
-24.77
31.00
78.91
106.15
108.02
89.34
61.34
35.63
19.24
12.47
10.91
9.49
6.27
3.84
7.15
19.18
37.41
53.81
58.60
45.57
16.15
-20.14
-49.85
-62.01
-53.49
-29.99
-2.08
20.66
34.18
40.99
46.67
54.87
63.34
64.41
49.53
15.34
-32.77
-81.66
-115.75
-124.20
-105.79
-69.60
-30.28
-0.61
13.77
15.64
12.65
11.64
13.88
14.50
6.31
-14.27
-42.83
-67.89
-76.16
-59.73
-21.05
27.05
66.97
84.18
73.86
43.15
7.20
-17.94
-22.36
-5.69
24.22
56.20
81.49
96.82
103.71
104.68
100.08
87.13
62.44
26.24
-15.09
-49.67
-65.40
-56.21
-26.32
10.39
36.09
37.21
10.90
-33.49
-78.67
-107.41
-110.17
-88.80
-54.57
-22.10
-2.49
0.94
-7.64
-20.57
-31.47
-37.82
-40.49
-41.15
-39.53
-33.39
-20.51
-1.81
17.06
27.44
22.27
0.95
-28.97
-54.16
-62.25
-48.26
-17.64
15.47
34.82
30.03
1.97
-37.55
-71.29
-85.23
-75.09
-47.77
-17.83
-0.06
-2.22
-21.37
-45.73
-61.01
-57.71
-35.59
-3.11
27.19
45.45
49.41
45.06
42.75
50.97
71.02
96.28
116.23
122.44
113.43
95.05
76.81
66.65
66.67
72.58
76.72
72.71
58.81
38.63
18.28
2.44
-7.66
-13.74
-18.40
-22.78
-25.95
-26.28
-23.50
-20.01
-20.34
-28.32
-43.98
-62.53
-75.91
-77.26
-65.14
-44.93
-26.65
-20.05
-29.45
-51.18
-75.15
-89.60
-86.99
-67.83
-40.21
-15.72
-3.35
-4.85
-13.90
-19.76
-13.26
7.58
35.65
58.43
64.88
52.03
27.24
4.60
-3.09
8.45
31.98
52.03
53.34
29.27
-13.99
-60.18
-91.10
-95.52
-74.35
-39.59
-8.21
6.46
0.86
-17.46
-34.40
-36.96
-20.07
11.26
45.25
69.69
78.54
74.26
65.45
61.31
66.05
76.67
85.56
85.85
75.42
58.26
41.27
29.93
25.41
24.05
19.85
8.37
-10.69
-33.17
-52.80
-64.57
-66.85
-61.38
-52.11
-43.17
-37.23
-34.98
-35.26
-35.91
-34.91
-30.92
-23.07
-11.25
3.77
20.34
35.98
48.25
55.74
57.89
54.84
47.22
36.00
22.89
10.19
0.30
-4.97
-5.24
-2.50
-0.56
-3.13
-11.34
-22.38
-30.50
-30.34
-20.16
-3.03
14.64
26.96
31.93
32.45
34.11
40.97
51.62
59.05
54.68
34.03
0.99
-33.09
-55.02
-56.80
-40.53
-17.61
-2.47
-4.31
-21.79
-43.75
-56.17
-50.94
-30.70
-7.07
6.92
5.46
-6.41
-16.29
-12.83
6.14
31.26
47.10
41.66
14.40
-22.40
-50.43
-55.83
-37.08
-5.99
19.11
24.12
7.22
-20.11
-40.07
-39.15
-16.42
16.13
40.74
44.71
28.26
4.09
-10.65
-5.30
17.24
42.04
51.69
37.40
5.27
-27.11
-41.21
-29.10
1.34
30.79
40.13
21.93
-14.85
-50.33
-65.47
-53.12
-21.64
10.77
27.36
22.44
3.80
-13.38
-16.82
-4.86
12.94
22.89
16.39
-4.26
-27.26
-38.93
-32.53
-12.58
7.58
13.98
0.63
-26.57
-53.05
-64.11
-53.45
-27.07
0.30
13.72
6.87
-14.56
-36.48
-45.16
-35.60
-14.35
5.16
10.99
-0.04
-21.00
-39.70
-46.37
-39.26
-24.84
-12.70
-9.11
-13.36
-19.00
-18.61
-8.65
8.63
27.14
40.85
47.09
47.46
46.04
46.51
50.17
55.68
60.57
62.93
62.27
59.34
55.30
50.68
45.68
40.35
35.16
31.02
28.17
25.43
20.29
10.38
-4.42
-20.75
-32.66
-34.77
-25.82
-10.54
2.26
4.75
-4.86
-20.38
-30.84
-27.46
-9.67
14.15
31.69
34.94
25.45
13.18
9.30
18.00
32.84
40.78
31.46
4.73
-28.09
-51.49
-55.74
-42.89
-25.05
-15.87
-21.43
-36.79
-50.25
-51.85
-39.86
-21.09
-5.49
0.11
-4.39
-13.48
-20.11
-19.60
-11.05
3.26
19.24
32.45
39.03
37.53
29.97
22.04
20.33
28.05
41.76
52.29
50.42
33.20
6.78
-17.07
-28.63
-26.76
-19.42
-17.74
-27.79
-46.02
-61.76
-64.60
-51.77
-29.69
-9.69
-1.16
-6.42
-20.39
-33.97
-39.34
-32.99
-16.72
3.56
20.34
27.44
23.27
11.99
2.21
2.21
14.82
34.65
50.83
53.82
41.77
21.85
5.21
-0.87
2.22
6.17
2.45
-11.17
-28.70
-39.94
-37.40
-20.83
3.08
24.68
36.74
37.29
29.55
19.81
14.31
16.68
25.99
36.73
40.79
31.85
9.57
-19.13
-43.06
-53.24
-48.43
-35.95
-26.40
-26.45
-34.50
-42.56
-42.53
-32.40
-17.57
-7.04
-7.27
-18.00
-32.70
-42.42
-40.98
-27.29
-5.19
18.45
36.44
43.64
39.11
26.92
14.90
10.74
17.59
31.54
43.56
45.24
34.43
16.89
2.06
-3.47
-0.28
5.02
5.23
-2.00
-12.37
-17.79
-11.84
6.30
31.33
54.63
68.23
68.17
55.85
37.32
20.56
11.86
12.23
16.39
15.55
2.94
-21.19
-48.84
-68.52
-72.42
-61.35
-43.89
-30.16
-25.11
-26.02
-25.31
-16.76
0.17
20.11
34.99
38.96
31.27
16.40
1.65
-6.12
-3.58
7.37
19.87
25.00
16.52
-4.85
-31.06
-50.78
-55.74
-45.56
-27.99
-13.98
-10.77
-17.85
-27.98
-32.54
-26.65
-11.86
5.37
17.33
19.05
10.71
-2.59
-13.43
-15.92
-8.71
3.77
13.94
15.48
7.76
-3.60
-10.50
-8.11
1.89
12.39
15.65
8.57
-5.17
-17.38
-20.55
-12.21
3.84
20.09
29.52
29.36
22.28
14.78
13.37
20.46
32.38
41.27
39.52
24.75
1.82
-19.22
-28.49
-21.74
-2.75
18.72
32.22
31.81
18.73
0.42
-13.84
-17.97
-12.04
-1.76
5.01
3.01
-7.45
-20.63
-28.98
-27.38
-16.45
-2.12
7.63
7.63
-1.53
-13.91
-21.58
-19.23
-7.40
8.03
19.21
20.83
12.82
0.32
-9.70
-12.05
-6.52
2.30
7.87
5.91
-2.73
-12.23
-15.27
-7.80
8.09
24.84
33.45
28.87
12.79
-6.95
-21.07
-23.80
-16.19
-5.02
1.32
-1.76
-12.36
-23.21
-26.33
-18.05
-1.29
16.00
25.65
23.58
12.11
-1.53
-9.02
-5.45
7.80
23.53
32.56
28.95
13.50
-6.86
-23.38
-30.18
-27.29
-19.94
-15.11
-17.15
-25.11
-33.04
-33.73
-23.29
-4.36
14.93
25.33
21.85
6.46
-13.03
-27.19
-30.06
-21.89
-8.46
2.87
7.54
6.75
5.97
10.70
22.29
36.52
45.97
44.81
32.70
15.73
3.61
4.10
18.45
39.78
56.11
56.72
38.01
5.65
-28.37
-51.75
-57.93
-48.65
-32.12
-18.35
-13.49
-16.89
-22.78
-24.44
-18.67
-7.91
1.82
5.07
0.78
-6.49
-8.96
-0.75
17.98
40.12
54.87
54.05
36.90
11.16
-10.90
-18.94
-10.01
10.14
30.15
39.18
32.68
14.35
-6.52
-20.71
-23.97
-18.62
-10.95
-7.12
-9.45
-14.92
-17.41
-11.89
2.10
19.36
31.53
31.90
19.59
0.56
-15.00
-18.19
-6.52
14.24
32.45
37.02
23.55
-2.90
-30.42
-46.57
-45.33
-30.22
-11.76
-1.23
-4.11
-17.51
-32.64
-40.26
-35.90
-22.22
-6.87
2.41
2.18
-4.56
-10.67
-9.72
0.01
14.20
24.91
25.51
14.89
-1.48
-14.18
-15.17
-2.53
17.95
35.12
38.62
24.66
-1.85
-30.03
-48.73
-51.96
-41.39
-24.55
-10.27
-3.51
-2.89
-2.82
2.23
13.64
27.47
37.13
38.00
30.67
21.40
18.52
26.73
43.91
61.45
68.89
59.91
36.39
7.98
-12.79
-17.27
-5.50
14.02
28.89
29.92
15.70
-6.93
-27.25
-36.73
-33.48
-23.07
-15.00
-17.31
-32.04
-53.81
-73.22
-81.75
-76.18
-59.98
-41.20
-27.98
-24.44
-28.78
-34.80
-35.89
-28.88
-16.03
-3.61
2.00
-1.42
-10.46
-17.90
-16.79
-4.35
16.36
37.65
50.95
50.99
38.74
20.54
4.60
-3.04
-1.26
6.45
14.44
18.70
19.31
19.81
23.99
32.61
42.08
46.30
40.42
24.21
3.58
-11.98
-14.60
-2.45
19.20
40.71
52.88
51.51
39.05
23.17
12.28
10.83
17.06
24.79
27.33
21.61
10.04
-0.95
-5.10
-0.56
8.38
13.83
9.18
-6.51
-27.38
-43.46
-46.26
-34.05
-13.34
4.74
10.90
2.68
-14.38
-30.05
-35.05
-26.19
-8.20
9.24
17.23
12.56
-1.25
-16.21
-24.24
-21.48
-10.33
2.30
8.98
6.06
-4.53
-16.31
-21.92
-17.64
-5.97
5.74
9.98
3.85
-9.23
-21.26
-24.36
-15.48
1.19
16.50
21.46
12.64
-5.95
-25.00
-35.15
-32.11
-18.92
-3.94
4.34
2.33
-7.10
-16.50
-18.33
-9.57
5.88
19.69
23.95
16.06
0.23
-15.01
-21.63
-16.93
-4.93
6.14
8.87
0.89
-14.04
-28.13
-34.15
-29.44
-17.46
-5.26
0.92
-0.73
-6.99
-11.86
-10.54
-2.68
7.10
12.03
7.28
-6.87
-24.55
-36.97
-37.11
-23.75
-2.64
16.67
26.04
23.45
14.07
6.96
9.43
22.33
39.34
50.85
49.57
35.18
14.77
-1.45
-6.04
1.53
14.83
24.38
23.51
12.18
-3.17
-13.69
-13.01
-0.39
18.70
35.57
42.99
38.65
25.88
11.66
3.08
3.40
10.34
17.83
19.44
11.87
-3.35
-20.45
-32.83
-36.90
-34.04
-29.27
-28.30
-34.17
-44.75
-53.91
-55.39
-47.11
-32.63
-19.46
-14.88
-20.75
-31.53
-37.37
-30.01
-7.71
23.01
50.39
64.08
60.77
45.64
28.75
19.49
21.74
31.89
41.89
44.39
36.61
21.41
5.50
-4.75
-6.77
-3.47
-0.93
-4.68
-16.42
-32.22
-44.51
-46.29
-36.09
-19.22
-5.04
-1.90
-11.39
-26.56
-35.92
-30.36
-8.27
22.92
50.64
64.40
61.30
47.01
31.79
24.59
28.34
38.65
47.12
46.79
35.89
18.61
2.71
-5.13
-3.20
4.31
10.07
7.98
-2.71
-16.24
-23.63
-18.05
0.43
24.43
42.83
47.00
35.95
16.71
-0.05
-6.25
-0.55
11.05
19.50
18.33
7.08
-8.74
-21.48
-26.04
-22.87
-17.10
-15.37
-21.66
-35.00
-49.86
-59.15
-57.91
-45.82
-27.47
-10.25
-0.99
-2.33
-11.58
-21.98
-26.36
-21.56
-10.08
1.38
6.09
1.78
-7.52
-14.37
-12.68
-1.90
12.19
20.72
17.43
2.51
-17.24
-32.28
-35.56
-26.55
-11.36
1.18
4.72
-1.57
-12.52
-20.49
-20.26
-12.40
-2.36
2.52
-2.30
-15.36
-29.69
-36.96
-32.07
-15.90
4.65
20.44
24.87
17.27
2.94
-9.53
-13.13
-6.41
6.27
17.40
20.54
14.27
2.96
-6.29
-8.05
-1.31
9.49
17.28
16.99
8.45
-3.45
-11.19
-8.95
3.41
20.45
33.71
36.17
26.45
10.15
-3.43
-6.56
2.84
19.83
35.57
42.93
40.30
31.78
24.34
23.19
28.58
36.16
39.69
34.51
20.19
0.85
-16.70
-26.22
-25.04
-15.58
-4.25
1.88
-0.78
-10.16
-19.61
-22.30
-15.84
-4.57
3.27
1.10
-10.74
-24.55
-29.56
-18.88
5.84
34.95
55.71
59.15
44.37
18.12
-9.42
-29.68
-39.45
-41.06
-40.05
-41.81
-48.57
-58.24
-65.61
-65.04
-54.07
-35.33
-15.90
-3.36
-0.92
-4.91
-6.40
3.06
25.52
54.27
76.96
82.58
68.52
41.80
14.88
-1.48
-4.29
1.24
6.26
4.16
-5.39
-16.79
-22.59
-17.93
-3.33
15.44
30.05
33.67
24.21
5.80
-12.63
-21.41
-15.45
3.11
25.43
40.48
41.59
29.73
12.33
-1.82
-8.20
-9.09
-10.75
-18.27
-31.19
-43.11
-46.00
-35.63
-14.31
9.81
26.55
28.99
16.29
-6.16
-29.01
-43.07
-43.35
-31.12
-13.55
-0.13
2.63
-5.20
-16.87
-22.93
-17.77
-3.81
9.78
13.00
2.13
-16.33
-29.16
-24.80
-0.72
34.09
63.58
74.16
62.06
34.64
5.97
-11.67
-14.01
-5.54
4.28
6.77
-1.11
-15.97
-30.52
-37.40
-33.00
-19.49
-3.38
7.50
7.99
-0.95
-13.02
-20.18
-17.22
-5.48
7.74
14.25
10.10
-1.75
-12.74
-14.76
-5.33
11.17
26.11
32.06
27.79
17.88
9.78
9.06
15.91
25.51
31.60
29.40
18.38
2.40
-12.80
-21.98
-22.72
-16.78
-8.78
-4.06
-6.36
-15.22
-26.31
-33.79
-33.43
-25.48
-14.85
-8.02
-8.97
-16.39
-24.02
-24.73
-15.29
1.43
17.64
25.40
21.97
11.00
0.74
-1.29
7.07
21.62
34.79
40.03
35.90
26.22
17.19
13.59
15.86
20.07
20.77
13.87
-0.93
-19.52
-35.73
-44.15
-42.33
-32.60
-20.64
-12.48
-11.98
-18.17
-26.06
-29.69
-25.56
-14.62
-2.23
5.41
5.04
-2.00
-9.83
-11.98
-5.48
7.49
20.28
25.47
19.80
6.00
-8.16
-13.56
-5.13
15.36
40.36
59.56
65.22
56.02
37.13
17.39
4.96
2.65
7.14
11.93
10.80
2.43
-9.17
-17.78
-18.94
-13.04
-5.65
-3.60
-10.43
-23.92
-36.30
-39.02
-27.93
-5.88
18.40
34.63
37.09
27.69
14.62
8.32
15.20
33.86
56.22
71.30
71.38
56.14
31.95
8.26
-7.76
-15.12
-18.48
-24.27
-36.64
-53.88
-69.16
-74.69
-66.32
-46.31
-23.09
-6.22
-1.29
-7.13
-16.15
-19.61
-12.83
2.02
17.33
24.51
19.28
4.15
-13.40
-24.92
-25.85
-17.82
-6.84
-0.00
-0.96
-7.52
-13.58
-12.40
-0.93
17.87
36.66
47.60
46.36
34.87
19.99
9.41
7.58
13.38
20.84
23.43
17.69
4.96
-9.26
-19.30
-22.50
-20.51
-18.45
-21.58
-32.01
-46.94
-59.62
-63.01
-54.13
-36.11
-17.07
-6.18
-7.99
-19.44
-31.12
-31.83
-14.87
17.58
55.07
83.54
92.06
78.58
50.61
21.36
2.86
0.17
9.22
20.12
23.12
14.32
-2.35
-17.97
-24.27
-18.57
-5.41
6.63
9.97
3.11
-8.52
-16.17
-13.22
0.68
19.56
34.94
40.80
36.64
26.98
17.93
13.30
12.34
10.96
4.31
-9.88
-29.32
-48.19
-59.77
-60.06
-50.06
-35.34
-23.26
-19.24
-23.63
-31.88
-36.95
-33.50
-21.29
-5.78
5.01
4.94
-6.04
-21.38
-31.71
-29.86
-15.29
5.16
21.58
26.15
17.52
1.50
-12.84
-18.41
-14.01
-4.81
1.57
0.07
-8.33
-16.93
-17.94
-7.36
12.05
31.50
41.39
36.64
19.84
0.52
-10.37
-6.05
12.59
37.30
57.27
64.66
57.93
42.24
25.47
13.82
9.17
8.40
6.53
0.26
-9.78
-18.58
-19.96
-10.36
8.60
29.55
43.11
42.63
27.93
5.98
-12.96
-20.64
-14.94
-0.96
12.31
17.36
12.34
2.31
-4.39
-1.36
11.66
27.66
36.48
30.66
10.45
-15.42
-34.52
-37.32
-22.68
1.16
21.32
27.56
17.70
-1.16
-17.41
-21.83
-12.68
3.30
15.52
15.67
3.10
-14.65
-26.39
-23.60
-5.82
18.65
37.21
39.66
24.03
-2.44
-27.64
-41.13
-39.76
-28.81
-18.11
-16.67
-27.09
-44.80
-61.00
-67.52
-61.53
-46.41
-29.52
-18.06
-15.19
-19.15
-24.56
-25.97
-20.96
-11.01
-0.56
5.36
4.20
-2.86
-11.46
-16.13
-13.39
-3.58
9.22
19.57
24.00
23.07
20.96
22.62
30.02
40.73
49.14
49.77
41.18
26.82
13.39
6.96
9.26
16.90
22.79
20.56
8.43
-9.84
-26.10
-32.57
-26.02
-9.29
9.88
23.21
26.28
20.35
11.40
5.91
6.69
11.62
14.56
10.12
-2.65
-19.24
-31.50
-32.57
-20.97
-1.51
16.82
25.69
21.81
8.85
-4.85
-11.00
-6.34
5.61
15.92
15.78
1.57
-22.27
-45.19
-56.12
-49.35
-27.71
-1.09
19.25
26.49
21.53
11.49
4.55
4.98
10.90
15.88
13.89
3.28
-11.71
-23.23
-24.72
-14.85
1.17
14.58
17.92
9.90
-3.27
-11.43
-6.18
13.65
40.66
62.63
69.05
56.48
30.77
3.36
-14.89
-18.88
-11.49
-1.05
3.67
-1.43
-13.74
-25.90
-30.48
-24.50
-11.23
1.93
7.91
3.91
-6.96
-17.67
-21.56
-15.92
-3.71
8.15
11.99
3.67
-14.98
-36.87
-52.67
-55.58
-44.67
-25.26
-5.77
7.21
12.29
13.45
16.37
23.66
32.62
36.87
30.50
13.00
-9.60
-27.52
-32.29
-21.70
-1.35
17.91
25.63
17.13
-3.47
-25.35
-36.71
-31.12
-11.09
13.55
31.48
36.36
29.78
19.46
13.95
17.09
26.30
34.56
35.15
25.97
10.59
-3.58
-9.51
-4.43
8.71
22.58
29.25
24.41
9.72
-8.08
-21.54
-26.63
-25.06
-22.72
-25.06
-33.55
-43.75
-48.38
-41.82
-23.64
0.36
21.11
30.87
27.38
15.15
2.41
-3.00
1.78
12.97
22.97
24.57
15.61
0.38
-12.56
-15.50
-6.35
10.05
23.97
26.03
12.43
-12.85
-39.52
-56.35
-56.37
-40.63
-17.43
2.27
10.77
7.83
-0.32
-5.11
-1.47
8.60
17.86
18.44
7.27
-11.52
-28.90
-36.02
-29.34
-12.53
5.51
15.87
14.22
3.17
-9.31
-14.52
-7.86
8.54
27.11
39.04
39.19
28.68
13.97
2.55
-0.98
2.85
9.21
12.16
8.00
-2.08
-13.20
-19.20
-16.03
-5.03
7.76
14.13
8.91
-6.84
-25.78
-38.12
-37.63
-24.99
-7.98
3.55
2.97
-9.36
-27.18
-42.39
-49.66
-49.45
-46.61
-47.13
-53.90
-64.46
-71.90
-68.62
-51.42
-23.84
4.57
23.38
27.44
20.19
12.04
13.35
28.34
51.79
72.51
80.23
71.94
53.47
35.23
26.42
29.76
40.89
51.56
54.32
46.30
29.85
11.24
-2.93
-8.59
-6.60
-2.09
-1.60
-9.43
-23.92
-38.11
-43.04
-33.94
-13.23
10.01
25.10
26.61
16.98
5.42
1.20
8.59
24.19
39.17
44.96
37.86
21.09
2.04
-11.10
-13.71
-6.54
5.15
14.48
16.56
10.89
1.99
-3.42
-0.07
11.71
25.95
34.14
30.86
18.07
4.45
0.47
10.89
31.46
50.43
56.04
43.91
19.98
-3.26
-14.93
-12.47
-2.95
2.08
-5.94
-26.80
-52.04
-70.35
-74.33
-64.05
-46.34
-30.16
-21.78
-22.09
-27.31
-31.65
-30.37
-21.51
-6.49
10.48
23.77
28.46
22.62
8.58
-7.47
-18.68
-20.94
-15.59
-8.59
-7.06
-14.42
-27.88
-39.50
-41.10
-29.77
-9.71
9.50
19.27
17.23
9.21
5.01
12.33
31.22
53.39
66.62
61.78
38.65
6.35
-21.09
-32.75
-26.35
-9.79
4.16
5.18
-8.45
-29.32
-45.21
-46.44
-32.07
-9.89
7.77
11.91
1.84
-14.36
-25.33
-23.31
-9.43
7.54
16.14
9.66
-9.50
-30.42
-39.72
-29.26
-0.87
33.59
58.47
62.41
44.90
16.40
-6.89
-12.38
1.96
25.93
43.09
40.29
15.69
-19.77
-48.33
-55.45
-38.87
-9.31
15.40
21.46
7.08
-16.39
-32.19
-28.93
-8.19
16.15
26.63
13.00
-20.57
-57.53
-78.23
-71.35
-39.81
1.19
33.45
46.42
42.01
31.96
29.22
40.08
60.66
80.59
89.99
85.59
72.10
58.21
51.17
52.66
58.29
60.57
53.11
33.54
4.56
-27.02
-52.96
-66.82
-66.85
-57.11
-45.99
-42.18
-49.72
-65.17
-79.43
-83.17
-72.76
-52.84
-33.78
-24.74
-27.41
-34.58
-34.76
-19.87
9.16
42.52
67.18
74.63
65.58
48.73
35.23
32.13
38.84
48.31
51.98
45.07
29.44
12.46
2.46
3.84
14.18
25.53
29.13
20.38
1.76
-18.54
-31.27
-31.34
-20.58
-6.37
2.66
1.00
-10.95
-27.78
-41.87
-47.51
-43.43
-33.24
-23.37
-19.03
-21.05
-24.64
-22.51
-9.48
12.80
35.53
47.16
40.16
16.03
-14.94
-39.21
-47.53
-39.51
-23.55
-11.14
-10.42
-21.72
-37.92
-48.96
-47.33
-32.63
-10.98
8.59
19.76
22.09
20.54
21.28
27.06
34.91
37.89
29.78
9.60
-17.03
-40.18
-50.91
-45.97
-29.37
-11.00
-1.34
-6.27
-23.58
-43.72
-54.24
-46.64
-21.29
12.05
39.33
50.36
44.67
31.30
22.05
24.25
35.42
46.48
48.00
37.61
21.21
9.06
8.26
18.40
32.03
39.69
35.91
21.97
4.38
-9.43
-14.94
-12.09
-3.87
5.09
10.55
9.58
1.86
-9.84
-19.96
-23.08
-16.94
-5.04
4.71
4.42
-8.08
-26.79
-40.14
-37.75
-17.65
11.89
36.27
43.52
31.33
8.64
-10.55
-15.48
-5.56
10.65
21.65
21.53
13.76
8.90
16.50
38.12
65.06
83.08
80.90
57.11
21.09
-12.45
-31.18
-31.43
-18.38
-2.42
7.45
7.53
0.45
-8.20
-13.13
-12.55
-8.57
-5.78
-8.75
-20.06
-38.89
-61.04
-80.27
-90.61
-89.43
-78.89
-65.51
-56.98
-58.03
-66.84
-75.75
-75.05
-59.30
-31.09
-0.53
20.85
27.02
21.09
12.74
11.35
19.50
31.63
38.78
35.57
24.53
14.18
12.77
22.42
37.35
47.87
46.73
33.66
14.98
-0.32
-5.58
0.81
15.42
31.92
43.46
45.42
37.16
22.79
9.43
3.78
7.80
17.53
25.01
23.92
13.83
1.20
-5.44
-1.08
11.28
22.64
23.27
9.36
-14.91
-39.50
-54.95
-56.84
-47.87
-35.15
-26.58
-26.53
-34.31
-44.18
-48.74
-42.41
-25.28
-3.33
13.48
16.97
5.97
-11.81
-23.66
-18.89
3.72
35.22
61.00
70.13
61.05
42.18
25.11
17.61
18.68
21.02
16.39
1.76
-19.13
-38.41
-49.09
-48.64
-39.88
-28.52
-20.42
-18.85
-23.65
-30.86
-34.73
-30.23
-16.68
1.18
14.55
15.51
2.49
-17.49
-32.25
-31.68
-14.74
8.98
24.79
22.44
3.08
-21.00
-34.37
-28.29
-6.58
16.81
27.00
18.03
-3.06
-20.82
-21.15
-0.47
31.94
59.25
67.35
53.34
26.97
4.71
-0.36
14.01
38.23
57.49
61.09
49.09
31.65
22.13
28.05
46.20
64.80
71.24
60.25
37.32
15.26
6.45
15.15
35.32
54.48
61.04
50.61
27.87
3.38
-12.58
-15.48
-8.35
0.72
3.46
-3.71
-17.71
-31.04
-36.62
-32.58
-23.58
-17.80
-21.67
-34.96
-50.26
-56.92
-47.81
-24.12
4.84
26.82
33.49
25.35
11.09
2.34
6.86
24.34
47.07
64.59
69.23
59.69
40.55
19.13
1.18
-11.32
-20.13
-28.48
-38.53
-50.16
-61.14
-69.00
-72.23
-71.42
-68.36
-65.14
-63.27
-63.17
-64.60
-66.74
-68.24
-67.26
-62.05
-51.70
-37.75
-24.20
-16.34
-17.36
-26.11
-36.64
-41.54
-36.43
-23.28
-9.24
-2.09
-4.11
-10.26
-10.76
1.74
26.75
54.64
72.65
73.31
59.58
43.64
38.54
50.29
73.40
95.23
103.67
94.76
73.80
51.29
35.65
28.95
26.52
21.08
7.20
-15.90
-44.21
-71.20
-90.78
-99.74
-99.00
-93.16
-87.88
-86.41
-86.72
-82.16
-65.22
-33.52
7.36
45.05
67.28
69.56
58.03
46.22
46.08
60.90
82.87
98.71
97.57
77.96
47.63
19.02
1.82
-1.30
4.88
11.52
10.59
-1.66
-22.92
-46.11
-62.57
-66.58
-58.35
-45.02
-37.01
-42.08
-59.90
-81.39
-93.64
-88.09
-66.24
-39.00
-19.85
-15.56
-21.72
-25.52
-14.94
12.56
47.42
73.38
77.81
60.25
33.19
14.94
18.30
42.85
74.73
95.19
91.63
65.17
29.51
2.20
-5.92
3.17
17.28
22.07
10.79
-12.05
-34.10
-43.58
-36.68
-19.21
-2.59
3.97
-1.55
-13.01
-20.81
-18.04
-4.86
11.76
22.67
21.48
8.57
-9.60
-24.26
-29.56
-25.87
-18.84
-15.88
-20.91
-32.36
-43.15
-45.12
-33.64
-10.90
14.98
34.36
40.66
34.08
20.85
9.78
6.95
12.34
20.03
21.75
12.31
-7.26
-29.12
-42.73
-40.33
-21.84
4.54
26.57
33.95
24.16
3.67
-15.49
-22.53
-14.09
3.92
19.59
22.50
9.82
-11.42
-27.97
-28.02
-8.22
23.55
52.10
62.71
49.27
17.97
-15.72
-34.87
-30.13
-4.60
27.77
49.93
50.60
30.25
0.74
-21.39
-23.64
-4.58
26.01
52.28
61.28
50.00
26.73
6.51
2.37
18.11
45.35
68.11
71.18
48.64
8.06
-33.53
-57.97
-55.94
-31.65
-0.50
19.73
18.69
-1.45
-27.38
-42.93
-38.32
-16.34
9.74
23.38
14.78
-13.10
-46.24
-66.77
-63.35
-37.11
-1.62
24.68
28.03
6.38
-29.50
-62.38
-77.62
-71.39
-51.66
-33.57
-29.81
-42.61
-62.67
-74.35
-65.73
-35.94
3.10
33.71
42.71
29.22
4.94
-13.35
-13.90
2.61
24.56
37.00
31.59
12.29
-7.54
-13.40
0.62
27.98
53.06
60.63
45.18
14.51
-14.76
-26.90
-16.26
9.74
35.62
47.20
40.08
21.49
4.83
0.70
10.09
24.28
30.75
21.74
-0.60
-24.79
-36.93
-28.79
-2.82
28.72
50.45
52.12
34.27
7.91
-11.85
-14.29
0.80
23.54
40.14
41.32
27.99
10.20
0.43
5.44
21.48
36.80
38.73
21.66
-8.91
-38.80
-52.42
-41.14
-7.78
33.98
66.42
76.10
60.59
29.80
0.33
-12.99
-5.33
15.70
34.49
36.28
15.81
-19.61
-54.01
-71.51
-65.12
-39.92
-10.52
6.94
3.19
-20.20
-51.79
-76.71
-83.99
-71.73
-47.33
-22.88
-8.99
-9.50
-20.46
-33.34
-39.64
-35.69
-23.27
-7.84
4.80
11.62
12.39
8.69
2.09
-6.86
-18.05
-30.26
-40.29
-43.20
-34.55
-13.55
15.11
42.02
57.00
54.37
37.01
15.85
4.59
12.16
37.22
67.78
87.59
85.04
59.75
23.52
-6.42
-16.57
-4.35
20.77
42.79
47.85
31.38
0.04
-32.58
-53.04
-54.95
-41.60
-23.67
-13.34
-17.96
-36.58
-61.01
-80.35
-86.86
-79.72
-64.50
-49.62
-41.29
-40.19
-42.30
-41.94
-35.83
-25.30
-14.81
-8.73
-7.84
-8.80
-6.72
1.42
14.06
26.16
32.43
30.74
23.97
18.02
17.89
24.70
34.57
41.41
40.72
32.21
20.50
12.20
12.24
21.14
34.52
45.37
47.74
39.69
24.78
10.39
4.32
10.50
26.55
44.43
54.08
48.59
28.67
2.79
-16.28
-18.13
-0.93
26.99
50.47
55.34
36.66
1.79
-32.23
-47.72
-36.06
-3.02
33.67
53.66
45.20
11.58
-30.16
-58.81
-60.41
-36.13
-1.19
23.91
24.98
1.26
-34.49
-64.13
-74.14
-62.51
-38.74
-17.29
-8.86
-15.33
-29.58
-40.88
-41.60
-31.21
-16.09
-4.94
-2.92
-9.19
-17.40
-20.23
-13.96
-0.50
13.54
21.31
20.09
12.52
5.14
3.90
10.49
21.37
29.67
29.73
20.97
8.13
-1.00
-0.59
9.57
24.01
34.25
34.01
23.39
8.59
-1.38
-0.33
10.98
25.42
33.31
28.49
12.68
-5.61
-15.91
-12.16
2.95
19.91
27.70
20.75
2.82
-15.34
-22.43
-13.48
6.30
24.86
30.35
18.23
-5.36
-27.37
-35.54
-25.21
-2.40
20.37
31.30
25.69
8.26
-10.44
-20.72
-18.71
-8.06
3.34
8.37
4.23
-6.34
-17.33
-23.32
-22.24
-16.07
-9.34
-6.50
-9.49
-16.57
-22.92
-23.42
-15.43
-0.82
14.24
22.23
18.36
3.60
-14.94
-27.80
-28.31
-16.58
0.27
12.34
12.64
1.31
-14.32
-24.28
-22.03
-8.83
7.13
15.56
10.13
-7.32
-27.55
-38.87
-33.70
-13.07
13.91
34.49
38.99
25.91
2.72
-18.16
-25.95
-17.28
2.28
21.45
29.92
23.92
8.39
-6.48
-11.47
-3.70
11.48
24.04
25.18
12.71
-7.54
-25.11
-30.79
-21.75
-2.90
15.96
25.46
21.76
8.41
-5.92
-12.59
-7.96
4.57
16.47
19.42
10.53
-5.42
-18.61
-19.98
-7.08
14.07
32.13
37.05
25.96
5.31
-13.08
-19.00
-10.12
6.65
19.52
18.88
3.21
-19.68
-37.06
-38.77
-23.31
1.00
20.47
23.68
8.02
-18.39
-40.76
-45.58
-28.04
4.98
38.13
55.65
49.69
24.59
-5.38
-23.78
-20.96
0.67
28.12
45.47
43.07
23.14
-1.86
-16.61
-12.51
7.06
28.78
37.55
25.98
-0.79
-27.93
-39.23
-26.78
4.19
38.03
57.11
51.35
23.84
-11.29
-36.01
-38.04
-16.98
15.80
43.19
51.36
36.94
7.79
-21.43
-37.47
-35.53
-20.97
-5.69
-0.77
-9.84
-27.68
-43.57
-47.88
-38.10
-20.01
-4.02
1.01
-6.59
-20.85
-31.97
-31.89
-19.29
0.18
17.50
25.20
21.70
11.16
0.23
-5.78
-5.85
-2.82
-0.91
-2.98
-8.59
-14.59
-17.14
-13.93
-5.62
4.44
11.45
11.72
4.35
-8.25
-21.38
-30.34
-32.46
-28.13
-20.34
-12.79
-7.85
-5.40
-3.28
1.07
8.44
17.12
23.67
24.76
19.80
11.86
6.62
9.63
22.44
40.93
56.56
60.44
48.47
24.31
-2.02
-19.12
-20.52
-8.22
8.72
19.65
18.61
7.57
-5.47
-12.01
-8.58
1.10
9.09
8.50
-1.63
-15.69
-25.02
-23.52
-11.50
4.34
14.81
13.63
1.20
-15.65
-27.48
-27.68
-16.11
0.87
13.99
16.53
7.90
-6.35
-18.02
-21.36
-16.37
-8.33
-4.18
-8.10
-18.69
-30.11
-35.37
-30.38
-16.50
0.48
13.35
17.06
11.33
0.62
-8.56
-10.73
-4.54
6.44
16.14
19.01
13.34
2.33
-7.99
-12.31
-8.80
-0.64
6.13
6.43
-1.20
-13.29
-23.35
-25.99
-19.69
-8.01
2.29
5.35
-0.01
-9.91
-16.74
-13.70
0.86
22.75
43.25
54.14
52.20
40.65
26.95
18.76
19.17
25.27
30.74
29.21
18.76
3.09
-11.16
-18.04
-15.55
-7.09
1.06
3.61
-1.37
-11.03
-19.79
-23.04
-19.16
-10.57
-2.43
0.68
-2.49
-9.73
-15.59
-14.90
-5.98
8.61
22.47
28.84
24.72
12.49
-1.49
-9.77
-8.74
-0.55
8.76
12.20
6.35
-6.08
-18.29
-23.31
-17.60
-3.95
10.43
18.34
16.19
5.92
-6.04
-13.33
-13.12
-7.20
-0.98
0.32
-4.61
-12.91
-19.06
-18.43
-10.63
0.23
7.93
7.68
-0.91
-13.06
-21.80
-21.58
-11.61
3.44
15.99
19.77
13.16
0.39
-10.87
-13.80
-6.15
8.36
22.22
28.35
24.14
12.41
-0.21
-7.58
-7.38
-1.88
3.77
4.92
0.38
-7.20
-13.22
-13.74
-8.05
0.74
7.78
9.12
3.98
-4.43
-10.84
-11.16
-4.47
6.03
14.59
16.43
10.80
1.12
-6.62
-7.32
-0.47
9.56
16.15
13.93
2.42
-13.18
-25.08
-27.15
-17.73
-0.96
15.57
24.94
24.09
14.78
2.57
-6.69
-9.89
-7.48
-2.69
0.41
-0.41
-4.25
-8.03
-8.50
-3.95
3.90
10.80
12.33
6.60
-4.41
-15.11
-19.66
-15.59
-5.04
6.11
11.52
8.39
-0.73
-9.89
-12.92
-7.19
4.47
15.70
20.48
16.27
5.56
-5.53
-11.25
-9.46
-2.53
3.96
4.70
-2.11
-13.53
-23.82
-27.17
-21.34
-9.14
3.42
10.77
10.61
5.28
0.04
-0.72
3.75
10.53
14.55
12.14
3.35
-7.89
-16.36
-17.66
-11.07
0.15
10.85
16.77
16.24
11.16
5.54
2.80
4.02
7.68
10.22
8.74
2.97
-4.34
-9.27
-8.47
-1.89
6.88
12.81
12.43
5.76
-3.06
-8.07
-5.48
3.81
14.64
19.80
14.61
0.26
-16.13
-25.36
-20.52
-1.22
25.45
48.39
58.14
51.30
32.28
10.98
-2.84
-4.85
2.12
9.71
9.26
-2.71
-22.00
-39.19
-44.76
-34.51
-12.67
10.16
22.79
19.12
1.22
-21.68
-38.16
-41.07
-30.77
-14.55
-2.59
-2.26
-13.88
-31.21
-44.89
-47.29
-36.23
-15.91
6.26
23.64
32.96
35.12
33.29
30.23
26.62
21.55
14.02
5.09
-1.53
-0.89
9.48
27.21
44.51
51.33
40.51
12.97
-21.44
-47.84
-53.31
-33.65
3.74
43.08
67.68
67.64
44.29
8.57
-24.89
-44.93
-48.45
-40.36
-29.39
-22.58
-21.90
-24.29
-25.28
-22.89
-19.61
-20.27
-28.20
-41.27
-51.92
-50.91
-33.05
-1.28
33.78
58.72
64.04
49.01
22.49
-1.69
-11.66
-2.88
19.47
43.16
55.01
47.24
20.77
-15.75
-50.21
-72.80
-80.13
-75.00
-63.12
-48.86
-33.06
-13.97
8.91
31.87
47.18
47.50
30.41
2.03
-24.31
-33.91
-18.11
20.97
70.63
112.55
130.96
119.52
84.00
38.92
0.77
-19.35
-20.88
-12.88
-8.29
-16.27
-37.41
-63.46
-82.20
-84.88
-71.15
-48.72
-28.35
-18.04
-18.53
-23.76
-25.42
-18.11
-2.23
17.25
33.51
42.15
43.13
39.54
34.87
30.91
27.24
21.72
12.93
1.61
-9.23
-16.26
-17.56
-13.80
-8.50
-6.24
-9.75
-17.93
-25.81
-26.90
-16.65
3.94
27.46
43.51
44.22
28.93
5.48
-13.20
-16.30
-1.71
22.22
41.45
43.82
26.08
-3.78
-30.99
-42.17
-32.70
-8.45
17.64
32.50
29.64
12.08
-10.40
-26.79
-30.44
-21.68
-6.60
6.76
13.05
12.04
7.28
3.28
2.03
1.83
-1.17
-9.57
-21.49
-30.86
-30.42
-16.37
8.51
35.01
51.79
51.28
33.80
8.14
-12.31
-16.12
0.49
31.62
64.29
84.29
82.81
60.63
27.28
-3.70
-21.23
-21.64
-9.54
5.36
13.89
12.36
3.22
-7.33
-13.94
-15.11
-13.71
-14.18
-18.75
-25.00
-26.93
-18.71
1.12
27.69
51.34
62.61
57.39
39.55
18.72
4.68
2.15
8.53
15.94
16.23
6.07
-11.10
-27.91
-37.76
-38.47
-33.01
-27.74
-28.49
-37.60
-52.55
-68.03
-78.85
-82.61
-80.58
-76.90
-75.57
-77.43
-78.76
-73.31
-56.31
-28.06
4.99
32.11
43.68
36.28
14.98
-9.40
-25.95
-28.87
-19.79
-6.15
3.51
4.64
-0.78
-6.10
-4.43
7.01
25.04
41.58
48.05
40.12
20.47
-2.83
-20.40
-26.04
-19.32
-5.60
7.44
14.05
13.47
9.38
7.03
9.48
15.84
21.55
21.92
15.87
7.82
5.49
15.09
36.79
63.38
83.04
85.71
69.07
40.47
13.67
1.01
7.08
26.01
44.36
47.95
29.20
-8.78
-54.00
-91.43
-109.84
-106.36
-87.20
-64.05
-48.05
-44.67
-52.49
-65.10
-75.45
-79.30
-76.89
-71.56
-66.22
-60.75
-52.37
-38.33
-18.85
1.75
16.82
21.37
15.63
5.79
1.06
7.90
26.40
49.65
67.56
72.31
62.89
45.92
32.13
30.23
42.05
61.66
78.65
83.53
72.68
50.11
25.00
7.09
1.41
6.16
14.78
19.92
17.75
9.71
0.84
-3.84
-2.86
0.71
1.48
-4.04
-14.78
-25.04
-27.74
-18.93
-0.93
17.91
27.17
20.19
-1.66
-29.20
-49.52
-52.47
-35.95
-7.33
19.90
32.61
24.72
0.13
-29.65
-51.15
-55.43
-41.76
-16.84
9.43
29.36
40.61
45.62
48.24
50.17
49.61
43.09
29.41
12.24
0.05
1.70
20.89
52.73
84.69
101.69
93.45
59.74
10.89
-36.96
-69.15
-78.90
-69.24
-50.25
-33.49
-26.14
-28.37
-34.78
-39.15
-38.76
-36.07
-36.20
-42.59
-52.93
-59.44
-52.80
-27.92
11.53
53.50
82.90
89.27
71.90
40.28
9.10
-9.27
-10.25
1.49
15.40
21.48
15.47
0.40
-16.53
-28.89
-35.02
-38.45
-44.83
-57.47
-74.05
-87.03
-87.22
-69.33
-35.54
4.33
37.10
51.89
45.34
22.64
-4.89
-25.19
-30.97
-22.70
-7.11
7.77
17.50
23.30
29.85
40.49
53.38
61.46
56.26
33.75
-1.41
-36.68
-57.28
-53.87
-27.81
9.15
40.33
51.85
39.21
8.87
-25.21
-48.41
-52.25
-37.55
-12.33
13.11
31.58
41.52
45.74
47.68
48.29
45.13
34.44
15.14
-8.54
-27.44
-31.54
-15.51
17.14
54.32
79.93
80.90
53.83
7.11
-42.32
-76.79
-86.03
-71.21
-42.61
-12.92
9.61
24.05
34.16
43.66
51.91
53.75
43.53
20.18
-9.94
-34.84
-42.53
-27.50
5.69
44.16
72.42
79.24
62.15
27.86
-11.38
-43.49
-61.69
-66.38
-63.23
-58.61
-54.86
-48.83
-34.47
-8.11
27.54
62.34
82.74
78.57
49.10
4.98
-35.85
-56.50
-49.55
-20.55
15.15
40.82
46.94
34.60
12.79
-8.07
-22.25
-30.82
-38.60
-49.20
-61.02
-67.65
-62.30
-43.03
-15.66
8.41
18.22
9.85
-10.72
-30.14
-34.34
-16.36
19.47
58.65
83.13
80.01
48.48
0.60
-44.14
-68.14
-63.67
-35.59
2.39
35.24
53.51
56.20
48.78
38.52
30.01
23.30
15.66
4.87
-7.53
-16.23
-15.20
-1.99
19.54
40.06
49.24
41.67
20.15
-5.06
-21.08
-19.29
-0.34
25.46
42.89
39.35
11.59
-32.73
-79.14
-113.43
-127.75
-122.85
-105.32
-82.24
-57.25
-29.96
0.94
33.60
61.35
74.65
66.43
37.16
-3.26
-38.82
-54.22
-41.76
-5.16
42.15
82.92
103.82
100.50
78.16
47.37
18.22
-4.11
-20.22
-33.40
-45.62
-54.81
-55.54
-42.97
-17.33
14.38
40.15
48.11
32.69
-1.77
-42.18
-72.41
-80.68
-64.95
-33.43
0.43
25.11
36.19
36.73
33.01
29.42
25.76
18.23
3.55
-17.45
-38.55
-50.31
-44.62
-19.03
21.02
63.23
93.22
100.78
84.46
52.07
16.53
-10.70
-24.59
-27.48
-25.61
-24.15
-23.80
-21.22
-12.76
1.57
16.64
24.02
16.38
-8.10
-43.51
-77.46
-95.78
-88.89
-56.55
-8.96
37.85
69.66
80.84
75.66
63.68
52.62
43.61
32.06
12.86
-13.73
-40.44
-56.46
-53.92
-32.78
-1.54
26.40
38.71
29.22
0.12
-38.85
-74.57
-95.72
-97.38
-83.03
-61.92
-43.50
-31.20
-20.13
-0.35
35.42
84.89
134.84
167.12
168.57
138.72
89.67
39.02
0.53
-21.63
-31.79
-36.90
-40.24
-39.37
-29.29
-7.78
21.17
47.77
60.73
52.44
22.21
-23.68
-73.94
-116.14
-140.35
-142.05
-123.98
-94.81
-65.31
-42.72
-27.05
-11.59
11.74
45.65
83.43
111.31
116.11
93.89
52.99
9.73
-20.98
-33.65
-33.74
-31.79
-34.60
-39.49
-36.49
-16.29
21.73
66.95
102.38
113.99
97.96
61.65
18.41
-20.09
-48.60
-68.14
-82.34
-93.48
-100.70
-101.13
-91.94
-72.00
-42.69
-7.87
26.16
51.77
62.33
55.68
36.58
15.45
3.32
5.10
16.06
24.01
17.10
-7.31
-39.33
-61.67
-59.84
-31.37
12.07
51.57
71.66
68.40
49.57
27.99
13.25
7.06
4.50
-0.86
-11.78
-25.49
-35.78
-37.11
-28.29
-13.19
1.04
7.88
4.95
-4.60
-13.64
-15.11
-6.15
9.89
25.13
31.57
25.70
10.68
-5.15
-13.36
-10.17
1.33
13.04
16.53
7.97
-9.05
-25.03
-29.32
-16.03
11.97
43.94
66.52
70.78
56.91
33.95
14.65
7.94
14.19
25.26
29.43
18.14
-8.70
-42.03
-67.61
-73.21
-55.11
-20.69
15.11
37.50
39.75
26.59
10.48
3.04
7.41
16.66
19.66
10.04
-8.03
-22.02
-19.72
1.96
33.85
59.54
65.00
46.49
11.63
-26.18
-55.36
-70.98
-74.72
-71.50
-65.71
-59.74
-54.55
-50.72
-48.61
-47.89
-47.38
-45.96
-43.86
-42.70
-43.70
-45.02
-41.03
-24.99
5.77
45.94
82.54
101.03
93.76
65.15
29.79
4.11
-3.04
4.89
15.77
17.99
9.25
-1.38
0.16
22.75
62.59
103.77
127.09
121.21
88.98
44.96
6.27
-16.75
-24.51
-24.92
-26.27
-31.40
-37.15
-38.40
-33.09
-24.32
-18.65
-21.79
-35.39
-56.29
-78.32
-94.53
-98.96
-87.82
-60.91
-23.03
16.04
44.21
52.62
40.70
16.98
-5.35
-15.95
-13.34
-4.70
0.20
-2.90
-8.61
-5.47
15.52
53.10
94.33
121.34
121.77
96.15
57.16
21.59
0.91
-3.74
0.32
3.61
0.82
-7.36
-16.89
-24.40
-29.56
-34.57
-41.62
-51.11
-61.51
-70.56
-75.91
-75.13
-65.61
-45.66
-16.97
14.00
37.27
43.89
31.54
6.87
-17.73
-31.01
-29.90
-21.07
-16.27
-23.90
-42.24
-59.76
-62.01
-41.08
-1.67
40.67
68.24
71.42
54.30
31.89
20.88
29.32
51.53
71.40
72.21
46.93
3.23
-40.49
-65.39
-62.83
-39.18
-11.39
3.62
-0.77
-16.81
-27.56
-17.92
15.23
59.57
93.75
99.50
72.45
25.59
-17.49
-35.36
-20.50
16.72
54.09
70.38
57.00
22.17
-15.01
-36.41
-35.57
-20.34
-6.58
-7.02
-22.78
-42.79
-51.64
-40.29
-12.62
16.23
29.15
17.85
-11.66
-41.95
-54.09
-38.57
-0.86
41.33
67.73
66.50
40.42
4.97
-20.59
-23.91
-6.08
19.97
37.44
35.62
15.87
-10.04
-27.72
-29.27
-18.26
-6.88
-7.73
-25.11
-51.42
-70.93
-68.98
-41.05
3.58
45.98
67.33
58.99
27.19
-10.29
-33.65
-31.65
-7.33
24.54
46.03
46.15
26.45
-0.79
-20.71
-24.97
-16.52
-6.89
-8.21
-24.80
-49.79
-68.71
-68.19
-44.20
-5.28
31.54
49.73
42.09
14.60
-16.88
-35.35
-31.66
-9.22
18.67
36.64
36.01
19.34
-1.61
-13.42
-9.27
6.84
22.61
25.03
8.72
-20.17
-46.65
-54.85
-36.81
2.74
48.14
80.47
86.83
66.57
31.25
-1.86
-19.01
-17.08
-4.20
5.94
3.17
-12.35
-29.57
-33.05
-12.49
29.94
79.11
113.87
117.82
87.97
36.63
-14.80
-46.58
-50.24
-32.02
-8.55
3.07
-5.05
-27.09
-46.86
-47.03
-19.36
29.66
81.21
113.22
111.48
76.88
24.52
-24.23
-52.44
-55.34
-41.42
-26.24
-23.16
-36.09
-58.03
-75.65
-76.91
-57.49
-22.84
15.05
43.80
56.25
52.48
37.76
18.37
-2.02
-23.20
-46.27
-70.58
-92.06
-105.07
-105.95
-95.98
-81.13
-68.50
-61.29
-56.14
-44.56
-18.27
24.77
77.60
126.27
155.75
156.76
130.08
86.28
40.90
7.44
-8.55
-11.03
-10.29
-16.43
-32.74
-52.84
-63.44
-51.69
-13.26
43.40
99.07
131.73
126.56
83.22
16.14
-51.69
-98.57
-112.85
-96.68
-63.13
-28.91
-6.62
-0.60
-7.66
-21.05
-35.00
-46.85
-56.03
-61.61
-60.59
-48.88
-24.36
9.94
45.19
69.64
73.87
55.92
23.11
-11.15
-33.81
-38.47
-28.29
-13.42
-4.53
-6.28
-14.31
-18.17
-8.32
16.99
49.50
74.56
79.24
59.94
25.48
-6.72
-19.14
-2.95
37.24
85.32
121.07
129.19
105.49
57.05
-2.40
-59.18
-104.35
-134.68
-150.13
-150.82
-135.60
-103.55
-57.21
-4.73
40.99
66.35
63.26
33.71
-9.56
-47.35
-61.85
-44.66
-0.92
52.25
93.41
106.61
88.90
50.82
10.24
-17.15
-25.50
-20.17
-12.67
-12.34
-19.94
-27.64
-24.45
-3.97
30.54
66.88
90.33
91.52
71.06
38.42
5.51
-20.14
-38.64
-55.64
-76.17
-99.03
-115.10
-111.32
-78.24
-16.53
61.01
133.17
178.22
182.08
143.71
74.82
-5.06
-75.69
-122.80
-141.43
-135.21
-112.61
-81.78
-47.75
-12.62
21.64
50.72
67.58
65.70
43.69
8.36
-26.89
-48.12
-47.98
-29.90
-6.14
9.15
8.29
-5.50
-20.06
-22.05
-5.34
24.76
54.01
67.23
56.89
27.96
-4.62
-23.51
-17.93
11.06
51.33
86.30
103.36
99.32
80.28
56.01
33.32
12.35
-11.57
-42.18
-76.68
-104.01
-109.31
-82.01
-22.82
54.15
125.86
169.27
170.21
128.25
55.60
-28.86
-106.78
-165.71
-200.75
-212.79
-205.00
-179.81
-138.35
-82.18
-16.09
50.54
104.56
132.75
126.92
88.05
26.90
-39.23
-92.47
-120.66
-120.86
-98.72
-64.41
-27.29
7.56
39.01
66.79
88.27
97.52
88.23
58.62
15.47
-26.39
-49.53
-42.13
-4.50
49.73
98.97
123.35
113.50
73.94
19.56
-32.32
-69.63
-89.28
-94.98
-92.10
-82.70
-64.49
-34.04
8.25
54.86
92.35
107.07
92.26
52.44
2.50
-38.99
-58.33
-52.62
-30.34
-5.90
8.48
9.28
2.48
-1.30
5.75
23.29
42.79
52.75
45.99
24.56
-1.08
-18.10
-18.78
-5.07
12.30
20.29
11.29
-12.00
-37.57
-50.74
-42.50
-14.66
20.67
47.54
54.64
41.02
16.13
-6.19
-15.69
-11.17
-0.39
5.58
-0.38
-16.45
-32.78
-37.87
-26.09
-1.85
22.34
33.26
25.12
3.72
-16.13
-18.83
2.84
42.92
84.37
107.32
98.90
59.55
2.49
-53.21
-91.56
-106.00
-100.15
-83.22
-63.34
-42.79
-17.96
16.40
61.32
110.12
149.24
163.72
144.00
91.15
17.39
-58.54
-118.52
-151.41
-155.94
-138.83
-109.65
-75.49
-38.36
3.22
50.16
98.61
138.78
157.73
145.23
99.57
29.63
-47.96
-115.31
-160.03
-178.75
-176.05
-159.54
-134.55
-101.80
-59.43
-7.61
47.66
94.73
121.13
120.34
96.65
64.36
41.35
40.28
61.98
94.64
119.37
119.37
87.82
30.67
-37.07
-98.54
-141.85
-163.05
-164.47
-150.27
-122.53
-80.53
-23.37
45.89
117.66
176.77
207.45
199.90
155.31
86.26
11.59
-51.47
-94.00
-117.60
-130.79
-142.04
-153.41
-158.92
-148.90
-117.41
-67.96
-13.83
27.79
44.57
35.57
11.61
-10.82
-18.20
-6.23
19.32
47.25
68.23
79.94
87.56
99.32
120.15
147.29
170.01
174.17
149.02
93.07
15.93
-65.12
-131.92
-172.42
-184.46
-174.49
-152.40
-125.54
-95.47
-59.64
-16.22
31.31
73.27
97.73
97.26
74.30
41.46
15.78
10.25
27.11
56.60
82.20
89.28
72.53
38.06
-0.77
-31.51
-49.35
-59.10
-70.96
-93.06
-125.19
-157.80
-176.95
-171.97
-141.37
-93.51
-41.62
3.33
37.90
66.49
96.62
132.38
170.32
200.14
209.91
192.93
152.21
100.10
52.58
21.85
10.75
11.94
12.84
3.07
-19.33
-46.82
-66.86
-69.81
-55.17
-32.85
-18.16
-23.58
-51.73
-93.92
-134.86
-160.73
-165.73
-153.57
-133.39
-113.11
-94.36
-72.20
-39.46
7.38
64.45
121.28
165.59
189.31
192.34
182.23
169.56
162.01
160.38
158.40
146.88
119.75
78.66
33.38
-2.76
-19.74
-16.29
-0.97
12.37
11.98
-5.41
-33.08
-58.54
-71.29
-69.36
-61.03
-60.20
-78.39
-117.51
-168.08
-213.92
-240.50
-242.01
-223.34
-195.84
-169.87
-148.76
-127.68
-98.08
-54.58
0.25
56.00
99.42
121.27
121.13
107.44
92.49
85.97
90.38
100.68
108.47
107.70
98.77
88.58
86.42
98.35
123.48
153.82
178.32
188.59
183.15
168.07
153.38
147.16
150.53
156.28
152.15
127.29
78.68
13.78
-52.54
-105.42
-137.39
-151.76
-159.66
-172.58
-194.77
-220.29
-236.81
-233.63
-208.74
-170.74
-134.10
-110.87
-103.90
-105.45
-102.60
-85.40
-53.08
-14.77
15.58
27.23
18.69
-1.32
-18.99
-23.27
-12.20
5.97
17.52
11.25
-15.06
-53.11
-88.84
-110.16
-113.14
-103.09
-90.14
-82.30
-80.32
-77.42
-64.04
-34.45
9.02
56.49
95.50
117.35
121.30
114.39
106.77
105.84
112.30
120.26
121.48
110.79
89.95
67.43
54.05
57.22
76.95
105.75
132.58
148.60
151.36
145.47
138.95
137.84
141.99
144.80
136.84
111.81
71.17
24.91
-12.79
-30.57
-26.00
-7.29
10.66
13.82
-3.74
-37.11
-74.06
-102.68
-118.30
-125.95
-136.37
-158.42
-192.32
-228.10
-250.71
-248.54
-220.43
-176.99
-135.25
-109.75
-105.37
-115.68
-127.88
-130.65
-120.18
-101.08
-81.94
-68.88
-61.10
-51.04
-29.41
8.67
59.66
112.26
152.55
170.65
165.36
144.40
119.87
101.64
92.63
88.10
79.69
61.44
34.33
6.65
-10.35
-8.80
11.36
42.17
71.96
91.61
99.04
99.61
102.01
112.28
129.56
145.93
150.52
135.72
101.73
57.23
14.91
-14.87
-29.10
-32.66
-34.46
-41.15
-52.72
-62.21
-60.23
-41.05
-6.66
33.52
67.23
85.56
87.12
78.24
68.67
65.75
70.22
75.99
74.04
58.06
28.76
-5.99
-35.09
-50.15
-49.49
-38.36
-25.27
-16.62
-13.31
-10.74
-2.68
14.04
36.70
57.47
67.36
61.11
40.29
13.19
-9.18
-18.70
-14.66
-4.73
-1.50
-16.11
-52.01
-102.18
-152.26
-187.77
-201.69
-198.04
-189.14
-188.00
-200.27
-220.59
-235.85
-233.36
-208.65
-168.41
-126.55
-95.91
-80.64
-73.93
-62.70
-36.02
7.61
58.38
100.15
119.15
111.68
86.41
59.68
46.51
52.54
71.03
87.13
86.72
64.68
28.11
-7.71
-27.99
-26.21
-7.01
17.60
36.07
44.10
46.70
54.11
74.80
109.74
151.41
187.80
209.01
212.37
203.45
192.16
186.59
188.16
190.73
184.21
160.61
118.98
66.55
15.10
-25.02
-49.61
-61.83
-69.18
-78.20
-90.27
-100.79
-102.35
-90.15
-66.13
-39.73
-24.19
-30.36
-61.04
-108.80
-159.24
-197.61
-215.56
-214.41
-202.97
-191.35
-184.32
-178.05
-162.88
-130.16
-79.22
-19.92
31.05
58.57
57.19
34.40
6.69
-9.14
-4.27
18.86
49.63
76.80
95.41
109.05
126.00
152.36
186.51
218.34
234.02
223.31
185.14
128.49
67.84
15.82
-22.39
-50.56
-77.40
-110.04
-148.50
-184.16
-204.02
-197.63
-163.58
-111.46
-57.93
-18.95
-2.10
-3.36
-10.40
-10.32
2.70
24.57
44.36
51.96
44.97
30.89
22.50
30.13
55.03
88.10
114.80
123.29
110.71
84.29
56.76
38.32
30.71
25.94
11.26
-23.01
-76.75
-138.40
-189.84
-214.71
-206.16
-169.45
-118.17
-66.54
-22.19
16.36
56.17
102.97
155.03
201.99
229.10
224.75
187.04
125.75
57.92
-0.14
-40.15
-64.63
-83.29
-105.35
-132.63
-157.40
-166.83
-150.93
-109.28
-52.28
3.74
44.64
64.98
69.37
67.93
69.18
74.62
78.00
69.49
42.29
-2.23
-53.65
-96.81
-118.83
-115.14
-91.26
-59.29
-31.15
-12.55
-1.04
10.66
28.46
51.87
73.29
82.08
71.03
41.35
3.16
-29.03
-43.47
-36.89
-15.80
7.35
21.09
20.87
11.04
1.49
1.13
12.35
29.33
41.52
39.77
21.77
-6.52
-34.41
-52.30
-56.66
-51.03
-42.94
-38.51
-38.22
-36.30
-24.32
3.24
44.64
90.24
126.39
141.59
131.72
101.65
62.07
23.58
-8.26
-34.37
-59.35
-86.38
-113.30
-132.28
-133.69
-111.76
-68.57
-14.17
37.53
74.70
92.28
93.20
85.20
75.62
67.13
56.78
38.67
9.01
-29.80
-68.47
-94.47
-98.24
-78.19
-41.99
-3.16
25.28
36.45
31.74
18.28
3.84
-7.48
-16.50
-26.38
-38.49
-49.53
-52.05
-38.54
-6.41
38.90
84.93
116.95
124.37
105.51
68.57
27.72
-3.55
-18.22
-18.05
-11.00
-5.65
-6.00
-9.58
-10.07
-2.57
12.11
26.82
31.49
18.97
-10.29
-47.43
-79.14
-93.86
-86.98
-62.47
-29.89
0.82
24.10
40.32
53.59
67.22
79.99
85.58
75.55
44.76
-4.31
-60.61
-108.40
-133.76
-130.57
-102.63
-61.14
-18.90
15.40
39.74
57.17
71.24
81.96
84.52
72.19
41.18
-5.02
-55.14
-94.17
-109.99
-98.83
-66.90
-27.01
7.72
29.55
38.37
39.54
39.05
39.10
36.96
27.44
7.59
-19.57
-44.82
-56.72
-47.62
-18.28
21.59
57.19
75.39
70.33
45.52
11.10
-21.67
-45.50
-59.20
-65.65
-67.88
-65.74
-55.66
-33.59
0.53
40.35
74.28
90.07
80.82
49.15
7.11
-28.52
-43.50
-32.34
-0.45
38.72
70.08
83.45
77.12
56.70
30.60
4.90
-19.04
-43.14
-68.70
-92.77
-107.94
-105.97
-83.28
-44.60
-2.43
28.00
35.75
19.55
-11.40
-41.53
-56.09
-47.38
-17.51
23.55
63.13
91.34
104.42
104.37
95.94
82.85
66.05
44.52
18.31
-8.90
-29.66
-35.98
-24.33
0.92
27.68
40.81
29.16
-8.47
-61.77
-112.95
-144.47
-146.51
-120.48
-77.28
-31.46
5.10
27.01
35.10
33.40
25.78
14.49
1.14
-11.33
-17.77
-12.34
7.87
39.67
73.23
95.24
94.87
69.36
26.64
-17.07
-43.88
-42.21
-12.26
33.66
76.37
98.02
89.75
55.20
8.25
-33.81
-57.76
-59.57
-44.54
-23.43
-6.67
-0.23
-4.69
-17.16
-34.00
-52.50
-70.33
-84.16
-89.10
-80.11
-55.31
-18.80
19.26
45.98
51.72
35.09
4.77
-23.86
-35.40
-21.97
12.92
55.64
88.73
98.94
83.46
51.17
18.23
0.02
3.78
25.26
51.20
66.30
61.29
37.65
6.69
-16.81
-22.56
-10.33
10.05
24.32
21.65
0.64
-30.25
-57.62
-70.47
-65.80
-49.51
-32.26
-23.40
-26.20
-36.99
-48.43
-54.01
-51.45
-42.92
-32.73
-24.16
-17.70
-11.62
-4.06
4.82
12.59
16.16
14.34
9.33
6.18
9.97
22.51
40.52
56.76
63.73
58.06
42.78
26.24
17.57
21.45
35.09
49.42
53.96
43.02
19.36
-6.64
-22.54
-20.87
-3.64
18.21
30.60
24.33
0.51
-29.45
-50.07
-50.53
-31.22
-3.99
14.11
10.42
-15.90
-52.83
-81.97
-88.81
-70.83
-39.17
-12.42
-6.29
-24.83
-58.00
-87.36
-96.13
-78.16
-41.10
-1.94
22.33
23.65
7.09
-12.46
-18.65
-2.50
32.72
73.19
101.80
106.70
87.25
53.85
21.98
4.17
3.93
14.68
24.28
21.96
4.48
-22.32
-46.99
-58.62
-52.38
-31.60
-5.53
15.61
25.76
25.50
20.61
18.34
23.22
34.60
47.26
54.25
50.87
37.23
18.10
0.53
-9.71
-10.98
-6.35
-2.04
-3.91
-14.23
-30.46
-46.27
-54.59
-51.25
-37.24
-18.23
-1.48
8.28
11.42
12.95
19.14
32.81
50.75
65.14
68.33
58.31
40.53
25.03
19.95
25.70
34.04
33.04
15.18
-16.75
-50.44
-71.02
-70.24
-51.79
-28.97
-16.33
-20.14
-34.37
-44.87
-38.94
-14.19
19.15
44.43
48.91
32.19
6.67
-10.25
-7.27
13.32
36.85
45.30
28.87
-7.57
-47.08
-70.89
-69.62
-48.60
-23.84
-11.32
-16.71
-31.86
-40.58
-29.72
1.49
40.17
67.23
68.96
45.32
9.65
-19.90
-31.46
-26.02
-15.39
-13.36
-26.13
-48.70
-68.45
-73.99
-62.31
-39.85
-17.57
-3.71
0.44
-0.11
1.53
9.70
24.45
42.89
61.32
76.24
84.48
83.44
72.66
55.58
39.43
31.93
36.10
47.03
53.50
44.77
18.12
-18.15
-48.95
-61.79
-54.88
-38.44
-27.68
-32.41
-50.10
-67.58
-70.24
-52.39
-21.51
6.56
18.15
10.84
-5.38
-15.15
-8.39
13.07
37.16
49.69
43.71
23.10
-0.75
-16.78
-20.86
-16.86
-12.43
-13.13
-19.34
-27.15
-31.99
-31.60
-26.61
-18.77
-9.26
1.27
11.56
19.17
22.00
20.47
18.76
22.72
35.28
53.08
67.15
68.43
54.28
31.26
11.51
4.59
10.65
19.96
19.82
3.60
-24.23
-50.89
-64.09
-60.35
-46.77
-35.57
-35.52
-46.40
-60.11
-66.62
-60.76
-44.37
-23.89
-5.86
6.44
13.26
17.04
20.66
26.61
36.58
50.15
64.06
72.55
70.41
56.91
37.71
22.50
19.07
27.83
40.95
47.51
40.84
23.09
3.70
-7.26
-5.61
4.68
14.71
16.57
7.94
-7.18
-21.22
-27.57
-23.81
-12.83
-1.54
2.27
-6.43
-26.77
-51.79
-71.48
-78.10
-70.86
-56.26
-43.88
-40.07
-44.01
-48.82
-46.93
-35.39
-17.42
0.18
11.83
16.30
16.85
18.80
26.32
40.56
59.13
76.89
87.47
85.96
71.63
49.47
28.52
17.26
18.43
27.07
33.59
30.15
16.12
-1.78
-14.33
-16.26
-9.57
-1.77
-0.46
-8.39
-21.84
-33.11
-35.27
-26.22
-9.98
5.06
10.23
0.87
-20.91
-46.79
-66.35
-72.42
-65.05
-51.07
-39.80
-37.27
-42.72
-49.75
-51.01
-42.83
-27.12
-9.82
2.87
7.47
4.71
-1.25
-5.03
-2.55
6.76
19.08
27.67
26.60
14.95
-1.53
-13.05
-11.85
2.23
20.99
33.10
31.79
19.66
6.88
3.94
14.25
32.03
46.75
50.55
43.20
31.59
24.67
27.46
38.78
52.82
62.93
64.77
57.41
43.18
26.57
13.08
7.22
9.97
17.30
21.32
14.81
-3.78
-28.29
-48.10
-54.95
-48.63
-37.20
-31.30
-36.86
-51.08
-64.60
-68.16
-58.54
-40.14
-21.79
-11.37
-11.86
-20.58
-31.24
-37.39
-35.30
-25.58
-13.07
-4.56
-5.25
-15.28
-29.15
-38.52
-37.44
-26.31
-11.66
-1.55
0.09
-3.88
-6.08
-0.07
15.31
35.42
53.01
62.71
63.27
57.43
49.83
44.79
44.69
49.24
55.26
58.00
53.43
41.04
24.74
11.06
5.05
7.14
12.69
15.13
10.52
0.46
-8.83
-10.34
-0.94
16.43
33.94
42.78
37.56
19.09
-5.87
-27.92
-39.71
-39.29
-30.83
-21.94
-19.22
-24.36
-33.29
-38.71
-34.82
-21.11
-3.09
10.64
13.23
3.65
-12.63
-26.57
-31.08
-24.81
-12.72
-2.92
-1.55
-9.10
-19.95
-25.77
-20.56
-4.53
15.69
30.56
32.85
21.63
2.63
-15.05
-24.04
-22.19
-13.14
-3.71
0.14
-3.21
-10.19
-14.21
-9.70
3.97
21.54
34.64
36.67
26.64
9.59
-6.49
-15.22
-14.89
-8.71
-2.33
-0.23
-2.93
-6.80
-6.44
1.51
15.50
29.15
34.63
27.18
8.04
-15.75
-35.02
-43.04
-38.61
-26.35
-14.04
-8.33
-11.15
-19.03
-25.46
-25.27
-17.80
-7.07
0.92
1.95
-3.99
-12.72
-18.55
-17.29
-8.56
4.02
14.73
18.89
15.66
8.56
3.27
4.04
11.20
21.08
28.30
29.11
23.61
15.99
12.14
16.37
28.47
43.14
52.32
49.57
33.90
10.53
-11.68
-25.00
-26.60
-19.53
-10.63
-6.50
-9.85
-17.96
-24.46
-23.27
-13.02
1.85
13.46
15.33
6.13
-9.36
-23.12
-28.03
-21.66
-7.18
8.44
18.19
18.75
12.21
4.38
0.89
3.75
10.32
15.29
14.12
6.16
-4.70
-11.83
-9.88
1.68
17.35
28.33
27.41
13.33
-8.58
-29.51
-41.84
-42.98
-35.98
-27.14
-22.15
-22.80
-26.13
-26.55
-19.63
-5.22
12.33
26.65
33.19
31.64
26.24
23.52
28.43
41.39
57.01
66.46
61.92
41.16
8.87
-25.55
-52.47
-66.44
-68.02
-62.78
-57.55
-56.62
-59.35
-61.19
-57.05
-44.94
-27.43
-10.04
2.20
8.01
10.59
15.85
28.63
49.25
72.55
89.92
94.02
82.79
61.06
38.10
22.91
19.84
26.30
34.49
35.90
26.15
7.38
-13.08
-26.86
-29.16
-21.34
-10.06
-3.31
-5.89
-16.98
-31.00
-41.10
-43.10
-37.53
-29.01
-23.32
-23.63
-28.61
-33.48
-33.21
-25.63
-12.94
-0.69
5.45
2.81
-6.26
-15.69
-19.21
-14.06
-2.64
8.59
12.88
6.98
-6.65
-21.09
-28.80
-25.75
-13.83
0.24
8.42
6.02
-5.90
-21.23
-32.27
-33.98
-26.30
-13.54
-1.84
4.37
4.69
2.56
2.53
7.40
16.30
25.47
30.89
30.66
26.45
22.96
24.92
34.07
47.72
59.66
63.61
56.89
42.29
26.86
18.18
20.04
30.02
40.66
43.68
34.77
16.27
-4.10
-17.44
-18.68
-9.37
3.36
10.90
8.18
-3.58
-17.72
-26.37
-24.93
-14.83
-2.46
4.64
1.98
-9.24
-22.80
-31.27
-30.29
-21.02
-9.36
-2.45
-4.55
-14.56
-26.78
-34.27
-33.00
-24.08
-13.23
-7.16
-9.49
-18.38
-27.32
-28.99
-19.74
-1.87
17.27
29.29
29.59
19.80
7.09
0.13
3.98
17.05
32.09
40.35
36.38
21.18
1.84
-12.28
-14.73
-5.86
7.43
15.82
12.74
-2.04
-22.30
-38.82
-44.38
-37.52
-23.12
-9.32
-2.69
-4.91
-12.29
-18.52
-18.53
-11.34
-0.43
8.72
12.10
9.54
4.64
2.40
5.88
14.15
22.38
24.88
18.68
5.78
-7.64
-14.47
-10.71
2.04
17.16
26.72
25.89
15.89
3.31
-3.58
0.10
12.88
27.61
35.43
30.92
15.28
-4.33
-19.11
-23.41
-17.92
-9.00
-4.84
-10.61
-25.73
-44.33
-58.68
-63.48
-58.32
-47.51
-37.50
-32.72
-33.37
-35.50
-33.66
-24.29
-7.94
10.73
25.23
30.84
27.50
19.85
14.62
17.06
28.09
43.95
57.95
64.05
60.16
49.39
37.77
30.90
30.86
35.34
39.01
36.96
27.97
15.72
6.56
5.19
11.57
20.80
25.81
21.60
8.42
-7.81
-19.00
-19.76
-10.69
2.13
10.78
10.03
0.28
-12.54
-20.40
-18.05
-6.39
7.85
16.16
12.82
-1.45
-19.73
-32.28
-32.04
-19.08
-0.73
12.54
12.89
-0.45
-20.76
-37.63
-42.78
-34.91
-20.44
-9.56
-10.11
-23.36
-43.38
-60.71
-67.57
-61.96
-48.62
-36.00
-31.18
-36.21
-47.42
-57.92
-61.47
-55.68
-43.07
-29.30
-19.92
-17.06
-18.65
-19.95
-16.36
-6.16
8.36
22.40
31.32
33.65
32.12
31.79
36.79
47.68
60.78
70.08
70.95
62.82
50.02
39.46
36.41
41.56
50.48
56.24
53.45
41.39
24.89
11.89
8.75
16.26
28.84
37.64
35.20
19.89
-3.00
-23.72
-33.61
-30.29
-19.18
-10.05
-11.27
-25.01
-45.76
-63.16
-68.03
-57.70
-37.77
-18.60
-9.06
-11.77
-21.70
-28.95
-24.86
-7.30
17.58
38.95
47.67
41.28
25.62
11.72
9.28
20.91
40.25
55.76
57.37
42.40
17.25
-6.01
-16.63
-11.20
4.36
18.71
21.57
9.61
-11.91
-32.58
-43.15
-40.76
-30.29
-20.67
-19.32
-27.72
-40.68
-49.81
-48.90
-37.68
-22.05
-10.16
-7.45
-13.58
-22.37
-25.49
-17.50
0.92
23.28
41.18
48.70
45.44
36.71
30.20
31.63
41.40
54.78
64.84
66.41
59.18
48.13
40.45
41.26
50.47
62.75
70.43
67.90
54.80
36.43
20.66
13.43
15.68
22.79
27.35
23.59
10.55
-7.31
-22.66
-29.51
-26.52
-18.06
-11.68
-13.91
-26.50
-45.27
-62.70
-72.03
-71.22
-64.00
-57.60
-58.36
-68.09
-83.05
-96.40
-101.98
-97.79
-86.87
-75.45
-69.47
-71.46
-79.40
-87.78
-90.72
-85.00
-71.77
-55.88
-43.03
-36.89
-36.63
-37.30
-33.17
-21.22
-3.36
14.25
24.66
24.53
16.83
9.34
10.09
22.66
44.04
66.07
79.95
81.59
73.88
64.39
60.62
65.92
77.46
88.01
90.64
83.05
68.53
53.63
44.60
43.81
48.29
51.86
49.28
38.88
23.21
7.89
-1.84
-4.10
-1.55
0.63
-2.46
-12.49
-26.34
-37.40
-39.27
-29.76
-12.13
6.23
17.57
18.15
10.49
1.43
-2.19
2.73
13.76
24.40
28.34
23.32
12.13
0.88
-4.54
-1.70
6.80
14.95
16.80
9.68
-4.03
-17.68
-23.94
-19.11
-5.33
10.32
19.51
17.58
6.70
-5.58
-10.74
-4.43
10.98
27.40
35.96
32.03
17.75
0.59
-10.97
-12.12
-4.46
5.12
8.42
0.65
-16.77
-36.46
-49.15
-48.84
-36.23
-18.50
-5.37
-3.45
-12.28
-24.87
-31.79
-27.05
-11.54
7.43
20.39
21.23
10.43
-5.32
-17.29
-19.41
-11.62
0.51
9.20
9.17
0.90
-9.47
-13.86
-7.04
9.83
29.34
42.14
42.32
31.11
16.03
6.62
8.43
19.84
33.01
38.40
30.39
10.44
-13.78
-33.10
-42.05
-42.12
-40.79
-47.02
-65.55
-93.66
-121.86
-139.22
-139.30
-124.01
-102.60
-86.18
-81.37
-86.62
-93.90
-93.80
-81.51
-59.28
-34.56
-15.20
-4.88
-1.05
2.91
13.38
32.69
57.68
81.52
97.54
103.28
102.29
102.50
112.16
135.25
168.54
202.60
226.32
232.45
221.16
200.08
179.54
166.73
161.71
157.74
145.49
119.52
82.83
45.79
20.98
16.16
29.22
48.43
58.82
50.16
22.28
-14.88
-47.52
-65.93
-70.25
-69.42
-75.46
-95.71
-127.50
-159.50
-178.42
-176.79
-157.32
-132.02
-114.96
-114.15
-127.57
-144.40
-151.96
-143.12
-120.68
-94.91
-77.63
-75.09
-84.12
-94.47
-95.39
-81.86
-57.47
-32.41
-16.86
-14.78
-22.24
-29.49
-27.42
-12.92
8.99
28.39
36.00
28.53
10.70
-7.79
-17.96
-16.26
-6.09
4.36
7.38
0.10
-14.21
-28.13
-34.75
-32.03
-24.16
-19.12
-24.08
-40.74
-63.40
-82.06
-88.01
-78.40
-57.93
-36.39
-22.84
-20.81
-27.16
-34.08
-34.12
-24.87
-9.78
4.10
10.11
6.29
-2.85
-9.10
-4.61
13.98
43.17
74.13
97.07
105.51
99.61
85.76
72.99
67.71
71.02
78.50
83.40
81.31
73.48
65.84
65.85
77.84
99.61
122.95
137.79
137.09
120.89
96.37
73.86
60.89
58.64
61.36
60.31
49.50
29.69
8.36
-4.59
-2.61
12.77
32.68
45.52
43.34
26.72
4.37
-11.98
-14.35
-3.00
13.69
24.74
23.18
10.41
-4.92
-12.30
-5.73
12.08
31.40
41.06
35.10
17.03
-1.75
-7.88
6.61
39.86
80.32
113.00
126.86
120.09
100.65
80.88
70.18
69.29
70.26
61.48
35.78
-3.65
-44.00
-69.15
-68.67
-44.46
-10.64
13.57
13.49
-13.04
-54.85
-94.14
-116.20
-117.07
-104.74
-93.14
-93.33
-107.02
-125.90
-137.92
-134.99
-118.13
-97.06
-84.15
-86.80
-102.87
-122.10
-131.96
-125.06
-103.36
-76.69
-57.11
-52.35
-61.34
-75.67
-84.66
-81.43
-66.64
-47.62
-33.33
-29.34
-34.96
-43.69
-47.85
-43.16
-30.69
-16.48
-7.66
-7.92
-15.70
-24.96
-28.60
-22.82
-8.86
8.21
22.18
29.46
31.30
32.35
37.88
50.77
69.21
88.08
102.55
110.59
114.93
121.31
134.60
155.31
178.59
195.34
197.24
181.56
152.88
122.32
101.75
97.42
106.34
117.31
115.94
92.62
48.12
-6.96
-56.79
-88.94
-100.97
-101.01
-102.75
-117.52
-147.13
-183.33
-213.28
-226.75
-222.52
-208.47
-195.59
-191.23
-194.30
-196.21
-186.94
-161.60
-123.40
-82.44
-49.62
-30.35
-22.14
-15.90
-1.82
24.93
61.48
98.75
126.34
138.44
136.90
130.23
129.08
140.32
163.05
189.11
207.37
209.92
196.93
176.24
159.10
153.82
160.80
172.30
177.28
167.40
142.28
109.89
81.83
66.77
65.57
70.20
68.49
50.94
15.78
-29.42
-72.27
-102.64
-117.83
-124.31
-133.49
-154.27
-187.30
-223.90
-250.39
-255.91
-238.64
-206.41
-172.82
-149.59
-140.26
-139.69
-137.62
-125.28
-100.78
-69.48
-39.55
-17.02
-1.63
12.60
33.02
63.44
101.43
138.79
166.20
178.62
177.89
172.77
173.89
187.64
212.19
237.60
250.23
240.29
207.61
161.93
118.91
91.50
82.87
85.12
83.84
66.51
30.52
-15.76
-57.94
-83.47
-89.07
-81.81
-73.88
-75.69
-89.74
-110.00
-126.55
-131.93
-125.36
-113.30
-104.85
-106.17
-116.90
-130.10
-136.53
-130.09
-111.48
-88.26
-71.00
-67.25
-77.12
-93.10
-103.87
-100.93
-83.55
-59.61
-40.97
-36.61
-47.09
-64.00
-75.32
-72.50
-55.70
-33.77
-18.22
-16.24
-26.30
-39.03
-43.46
-33.75
-12.45
10.86
25.48
25.92
14.80
1.19
-4.96
1.32
17.52
35.10
44.11
38.92
21.16
-1.35
-18.84
-25.06
-20.23
-10.63
-4.95
-9.00
-22.50
-39.16
-50.23
-49.82
-38.18
-21.72
-9.42
-7.35
-15.12
-25.68
-29.24
-19.17
4.07
32.96
57.01
68.89
68.72
63.83
64.29
76.37
98.44
122.08
136.74
136.29
123.01
105.94
95.98
99.35
114.07
131.75
142.42
140.40
127.64
111.80
101.81
102.53
111.66
121.69
123.97
114.01
94.29
72.52
57.42
53.58
58.52
64.27
61.89
46.64
21.25
-5.95
-25.71
-33.39
-32.20
-30.92
-38.79
-59.65
-88.91
-116.19
-130.97
-128.86
-114.71
-99.68
-95.16
-106.28
-128.63
-151.31
-163.10
-159.21
-144.41
-129.86
-126.67
-139.09
-161.48
-181.62
-187.33
-173.53
-145.34
-114.67
-93.43
-86.58
-89.29
-90.48
-79.41
-52.39
-15.35
19.95
42.39
47.98
42.14
35.99
40.09
58.12
84.58
108.36
118.86
112.25
93.88
74.93
66.47
73.17
90.58
107.92
113.63
101.75
75.22
44.14
20.63
12.65
19.93
34.66
45.59
44.29
29.69
8.40
-9.12
-14.43
-5.86
10.38
23.71
25.23
12.89
-7.21
-24.25
-28.91
-18.61
1.05
19.74
28.58
25.30
15.28
8.00
10.87
24.41
41.93
53.38
51.73
37.54
19.11
7.74
10.88
27.31
47.23
57.40
48.73
21.73
-12.90
-40.08
-48.42
-36.49
-13.80
4.82
7.55
-7.82
-32.92
-53.94
-59.93
-48.59
-26.94
-6.49
3.84
2.66
-4.07
-7.41
-1.59
12.25
26.89
33.41
26.74
9.12
-11.04
-23.57
-22.14
-7.78
11.50
24.91
24.59
9.88
-12.11
-30.64
-36.74
-28.01
-9.93
7.48
15.18
10.17
-3.04
-15.20
-17.81
-7.99
9.69
25.98
32.61
27.19
14.62
4.15
3.59
14.24
30.21
41.80
41.70
30.03
14.52
6.23
12.53
32.07
54.68
66.82
59.30
33.11
-0.32
-25.17
-30.06
-14.28
11.97
33.47
39.05
27.65
8.53
-4.59
-2.11
16.19
41.43
61.27
67.60
60.91
49.97
45.91
55.64
78.08
104.28
122.95
126.25
114.27
94.70
78.34
73.25
80.25
92.48
99.78
94.25
75.03
48.44
24.11
9.33
4.54
3.73
-2.05
-18.90
-46.18
-77.33
-103.18
-117.44
-120.14
-116.62
-114.35
-117.93
-126.64
-134.80
-135.88
-126.79
-110.03
-93.34
-85.56
-92.06
-111.53
-136.10
-155.35
-161.50
-153.73
-138.82
-127.01
-126.09
-136.18
-149.27
-153.55
-140.87
-112.69
-79.94
-57.71
-56.35
-74.85
-101.23
-118.98
-116.50
-93.81
-61.89
-36.19
-27.30
-34.99
-48.25
-52.35
-37.47
-4.23
36.12
68.56
82.36
77.40
64.15
57.43
68.18
96.72
132.66
160.46
168.22
154.04
126.20
98.15
80.57
75.66
77.49
76.50
66.42
48.18
29.37
19.10
22.11
35.95
51.85
59.65
53.25
33.70
8.61
-12.32
-22.32
-20.84
-13.62
-8.51
-11.00
-20.37
-30.53
-33.64
-25.00
-6.47
14.96
30.77
36.24
33.21
28.89
31.43
44.72
65.98
86.93
98.50
95.83
81.29
63.49
52.79
55.55
70.75
90.55
104.44
105.08
92.21
72.59
55.60
47.80
49.16
52.97
50.45
36.04
11.42
-15.57
-35.01
-40.65
-33.72
-21.73
-14.01
-16.11
-26.48
-37.44
-40.03
-29.76
-9.46
12.19
25.80
26.83
18.42
9.32
8.74
20.77
42.09
63.67
75.77
72.99
57.04
35.49
17.38
8.54
8.91
13.28
14.61
8.25
-5.69
-23.02
-38.61
-49.71
-57.66
-67.07
-82.19
-103.82
-127.80
-146.89
-154.50
-148.66
-133.64
-118.01
-110.45
-114.88
-128.20
-141.49
-144.59
-132.23
-107.31
-80.19
-63.41
-65.14
-84.21
-110.47
-130.44
-134.62
-122.74
-103.70
-90.08
-90.48
-103.85
-119.91
-125.05
-110.35
-77.21
-36.75
-3.70
12.26
11.85
5.38
6.20
22.47
52.43
85.33
108.13
113.22
102.73
86.90
77.92
82.82
99.60
118.97
130.30
127.87
114.56
100.23
96.21
108.63
134.72
164.06
183.96
186.56
172.95
152.56
137.32
134.96
144.71
157.91
163.50
154.25
131.33
103.07
80.30
70.10
71.97
78.87
81.24
72.86
53.45
28.70
5.84
-10.76
-21.90
-33.20
-50.96
-78.28
-111.88
-143.88
-164.98
-169.95
-161.05
-146.69
-137.79
-141.52
-157.79
-178.90
-194.40
-196.84
-186.01
-169.23
-156.61
-155.19
-163.66
-173.28
-172.25
-153.44
-119.13
-80.41
-51.25
-40.22
-45.63
-55.99
-57.27
-40.91
-9.62
24.49
46.88
49.70
37.10
22.42
20.90
40.07
75.58
113.41
138.27
141.90
127.48
107.20
94.40
96.42
110.02
124.85
129.66
119.90
100.40
82.29
76.41
86.66
108.48
130.79
143.02
140.23
125.74
108.47
97.47
97.19
104.72
112.74
113.26
103.11
85.37
67.81
58.00
58.68
66.32
72.59
69.42
53.14
27.24
0.05
-19.64
-27.59
-26.51
-24.16
-28.88
-44.27
-67.02
-88.52
-100.37
-99.47
-90.42
-83.19
-87.21
-105.50
-132.10
-155.47
-164.81
-156.74
-137.07
-117.45
-108.40
-113.13
-126.24
-137.16
-137.28
-124.85
-106.35
-91.88
-89.02
-97.77
-110.27
-115.30
-104.77
-78.69
-44.69
-14.51
2.89
5.63
-0.07
-3.83
3.18
23.57
52.41
80.31
98.62
104.21
100.97
97.13
100.17
112.17
128.44
140.09
139.39
124.46
100.88
78.76
66.69
67.31
75.39
81.43
76.84
59.28
33.76
10.11
-2.44
-0.47
12.40
27.17
35.13
31.99
20.16
5.83
-4.96
-11.13
-16.74
-28.92
-52.72
-87.48
-126.18
-158.87
-177.85
-181.47
-175.35
-168.59
-168.89
-177.78
-189.91
-195.88
-188.22
-165.86
-135.63
-108.25
-92.29
-88.34
-88.00
-78.25
-49.21
-0.55
57.56
109.23
141.00
148.97
140.49
129.90
130.76
148.92
180.17
213.23
235.90
241.48
231.31
212.84
194.74
181.70
172.26
160.46
140.44
110.73
75.69
42.86
18.17
1.86
-12.13
-32.65
-65.60
-109.22
-153.96
-186.91
-198.36
-187.51
-163.07
-138.88
-126.69
-129.96
-142.29
-151.20
-144.72
-117.79
-74.56
-26.07
15.89
44.74
62.04
75.37
93.01
118.17
146.98
169.93
177.68
166.36
140.38
109.67
84.18
67.74
56.38
40.68
12.19
-30.48
-79.46
-121.72
-145.84
-149.01
-138.48
-127.68
-128.21
-142.83
-163.25
-174.94
-165.66
-132.86
-85.28
-38.05
-3.80
14.40
24.23
38.63
66.99
108.85
153.79
187.42
199.89
191.31
170.94
150.94
138.47
131.44
120.05
93.68
48.22
-10.13
-67.07
-107.49
-123.44
-118.14
-104.41
-97.24
-105.58
-126.98
-148.96
-155.66
-136.98
-93.88
-38.36
13.77
50.91
71.98
84.85
100.38
124.26
153.29
176.85
184.05
170.33
140.63
106.17
77.82
59.48
46.70
29.31
-1.59
-47.93
-102.71
-152.82
-185.20
-193.49
-180.65
-157.96
-138.80
-132.11
-137.30
-145.03
-141.90
-118.43
-74.00
-18.07
35.48
74.76
96.47
105.71
112.17
123.18
139.72
155.66
162.57
154.77
132.95
103.42
74.24
49.91
29.41
6.43
-25.84
-69.79
-120.17
-165.33
-191.59
-190.38
-162.28
-118.04
-73.01
-40.00
-22.51
-14.23
-3.07
20.68
58.74
103.07
141.53
164.20
169.64
164.09
157.23
155.32
158.11
159.15
151.17
131.18
102.71
73.60
51.10
36.93
26.51
11.62
-14.13
-50.85
-91.24
-124.26
-140.82
-139.35
-126.97
-116.27
-118.83
-138.98
-170.69
-200.35
-213.74
-203.52
-173.32
-136.07
-107.25
-96.76
-103.30
-115.28
-117.26
-98.43
-58.27
-6.66
41.62
75.25
92.27
100.35
111.42
133.93
167.35
202.12
225.49
229.01
213.83
189.50
167.95
155.81
150.24
141.13
117.86
76.45
22.68
-30.78
-71.10
-92.29
-97.99
-98.84
-106.43
-127.03
-158.40
-191.03
-212.81
-215.07
-196.64
-164.17
-128.57
-99.11
-78.61
-62.51
-42.29
-11.58
29.27
72.68
108.27
129.12
135.88
135.98
138.18
146.29
156.15
157.79
141.68
104.96
54.08
1.89
-38.76
-61.33
-68.23
-68.62
-72.95
-86.58
-106.43
-122.54
-123.11
-100.99
-57.69
-3.13
48.95
87.55
109.33
118.73
123.83
130.26
137.25
138.12
125.11
95.53
54.65
13.78
-16.03
-30.58
-35.16
-41.33
-59.59
-92.47
-131.90
-162.89
-171.27
-151.12
-107.99
-55.92
-10.27
19.28
32.66
37.55
43.96
58.07
79.17
100.65
114.45
115.70
105.38
88.94
72.63
59.21
46.57
28.99
1.52
-36.12
-78.02
-114.52
-136.92
-142.33
-135.34
-125.57
-122.27
-128.52
-138.75
-141.21
-124.39
-84.02
-26.17
35.05
84.30
112.39
120.38
117.66
115.76
121.53
133.71
144.35
144.31
128.72
100.03
66.02
35.04
10.74
-9.47
-32.51
-64.24
-104.64
-145.99
-176.20
-184.60
-168.20
-133.83
-95.14
-65.55
-51.38
-48.88
-46.94
-33.84
-4.08
38.19
82.23
116.24
134.24
137.99
135.00
132.54
133.11
132.40
122.73
97.78
57.22
7.81
-39.34
-74.03
-91.89
-96.07
-95.27
-98.67
-110.63
-127.52
-139.94
-137.62
-116.08
-79.36
-38.94
-6.91
10.23
15.78
20.07
34.11
62.59
100.95
138.09
162.67
169.71
161.98
147.83
134.89
125.63
115.88
98.58
68.45
26.19
-21.16
-63.08
-91.05
-102.57
-102.68
-100.99
-106.83
-124.18
-148.91
-170.83
-178.78
-167.20
-139.18
-105.72
-78.99
-65.67
-62.26
-57.44
-38.81
-1.12
49.85
100.05
134.75
147.58
143.25
134.74
134.62
147.87
168.75
185.36
186.59
168.62
136.82
102.15
74.92
59.58
53.13
47.73
36.04
15.43
-10.54
-34.76
-51.04
-58.24
-61.21
-68.31
-86.53
-116.95
-153.01
-183.44
-197.99
-193.09
-174.49
-154.06
-143.79
-148.75
-164.32
-178.77
-180.30
-164.15
-135.65
-107.11
-90.12
-88.43
-95.10
-96.59
-80.97
-45.42
1.74
45.53
72.67
79.24
72.30
65.60
71.06
92.17
121.80
146.94
156.23
146.32
124.10
102.32
92.62
98.91
115.65
131.19
135.06
124.29
105.11
89.41
87.40
101.56
124.95
145.31
152.02
142.51
123.34
106.10
100.63
109.35
126.38
141.25
145.09
135.48
117.06
98.08
84.88
78.41
73.34
62.03
39.14
5.25
-32.97
-66.44
-88.58
-99.37
-104.55
-112.99
-130.99
-158.56
-189.20
-213.47
-224.29
-220.73
-208.85
-197.72
-194.66
-200.06
-207.39
-206.71
-191.04
-161.27
-126.13
-97.97
-85.45
-88.91
-99.49
-104.72
-95.79
-72.78
-44.89
-24.59
-20.33
-30.54
-44.63
-48.40
-32.80
0.50
39.77
69.38
78.78
67.73
46.91
31.07
30.91
46.81
69.40
85.78
87.20
75.17
59.81
54.34
66.58
94.57
127.19
150.59
156.11
144.28
124.62
109.39
106.84
116.51
130.32
137.85
132.42
115.60
95.44
82.17
81.78
92.87
107.51
115.77
111.49
94.91
72.44
52.23
39.65
34.59
32.10
26.14
13.12
-5.55
-24.94
-39.60
-47.24
-50.17
-54.05
-64.74
-84.45
-110.25
-135.23
-151.99
-156.73
-151.66
-144.06
-142.22
-150.99
-168.55
-187.08
-196.60
-190.65
-169.92
-142.03
-117.65
-104.31
-101.81
-102.00
-93.43
-68.69
-29.30
14.31
48.45
64.16
62.50
53.91
51.71
64.08
89.44
117.82
137.45
141.76
133.32
121.21
115.04
118.87
128.70
135.26
129.46
107.84
74.42
38.28
8.55
-10.84
-23.10
-36.58
-59.45
-94.54
-136.71
-174.74
-196.49
-195.00
-172.08
-137.04
-102.00
-75.71
-59.00
-44.95
-23.53
11.86
59.96
111.59
154.32
178.96
184.48
177.15
165.89
156.07
146.14
129.31
98.84
53.76
0.99
-47.61
-81.38
-96.40
-97.17
-93.84
-96.03
-107.53
-123.69
-133.77
-126.66
-96.91
-48.47
7.10
56.08
89.21
106.04
113.54
120.84
132.61
145.93
152.20
143.10
116.52
78.74
41.11
13.46
-1.76
-10.45
-23.28
-48.77
-87.62
-131.54
-166.80
-181.34
-170.71
-140.67
-103.86
-72.94
-54.08
-43.74
-31.55
-7.13
33.08
82.95
129.93
161.50
171.99
164.74
148.66
131.93
116.62
98.29
69.67
26.91
-26.40
-80.10
-122.32
-145.93
-152.25
-149.93
-149.71
-157.86
-172.03
-182.27
-176.44
-147.26
-96.57
-35.16
22.98
67.24
95.09
111.74
125.49
141.81
159.90
173.67
176.03
163.56
138.92
108.92
80.37
56.14
34.00
8.81
-23.57
-62.89
-103.53
-137.06
-156.32
-159.49
-151.21
-140.61
-136.49
-142.39
-154.27
-162.36
-156.65
-132.89
-95.54
-55.99
-26.17
-11.89
-9.20
-6.65
7.69
39.19
83.12
127.36
159.27
172.62
170.68
163.25
160.18
165.37
174.74
179.37
171.26
148.31
115.38
80.98
52.10
30.20
10.95
-12.61
-45.26
-86.06
-128.18
-162.10
-180.61
-182.62
-173.93
-164.21
-161.51
-167.60
-176.41
-177.03
-159.92
-122.43
-71.16
-18.69
22.73
47.63
59.77
68.88
84.38
109.41
139.21
164.28
176.45
173.93
161.97
149.24
142.25
141.43
141.19
133.62
113.45
81.26
43.10
7.00
-21.66
-42.83
-61.29
-83.29
-111.87
-143.96
-170.49
-180.47
-166.57
-129.36
-77.89
-25.62
15.62
41.16
54.75
64.83
78.59
96.93
113.76
119.64
107.64
77.75
37.39
-2.75
-34.21
-54.88
-68.89
-82.96
-101.15
-121.10
-134.49
-131.25
-105.39
-59.12
-2.62
50.26
88.38
107.87
112.53
110.00
106.20
101.63
91.50
69.69
33.45
-13.40
-61.36
-99.54
-121.01
-125.94
-121.15
-115.74
-115.70
-120.23
-121.72
-110.33
-79.85
-31.83
24.27
75.64
112.02
130.43
135.30
134.41
133.46
132.70
127.24
110.94
81.01
40.61
-1.99
-37.76
-61.39
-73.96
-81.92
-92.71
-109.93
-129.96
-142.99
-137.97
-108.84
-58.66
1.00
55.30
92.96
111.09
115.32
114.84
116.51
120.72
121.82
112.19
87.47
49.60
6.28
-33.02
-61.66
-78.80
-88.86
-98.40
-111.60
-127.28
-139.06
-138.68
-120.90
-87.31
-46.25
-9.02
15.63
26.16
28.69
33.47
48.80
76.16
108.85
135.58
146.04
136.08
109.53
75.32
42.43
15.10
-8.74
-35.09
-68.50
-107.77
-144.68
-167.55
-167.66
-144.29
-105.93
-66.18
-36.53
-20.24
-11.34
1.32
26.55
65.20
109.17
145.80
164.85
163.73
147.85
126.64
107.35
91.18
72.90
45.36
5.39
-42.59
-87.04
-114.31
-115.67
-91.69
-52.48
-12.54
16.51
31.06
36.43
42.06
54.34
71.95
85.81
84.59
61.98
21.39
-24.75
-61.39
-78.83
-77.72
-68.46
-64.49
-74.29
-95.91
-117.70
-125.35
-110.33
-75.30
-33.33
-0.64
12.01
5.05
-10.72
-21.03
-16.25
3.46
29.03
48.72
55.05
48.85
37.97
31.72
35.31
46.80
59.12
64.85
60.67
49.07
36.55
29.13
29.14
33.96
37.99
36.42
27.50
13.30
-1.70
-13.77
-21.53
-26.51
-31.69
-39.23
-49.18
-59.30
-65.77
-65.74
-58.57
-46.67
-34.51
-26.33
-23.93
-25.50
-26.12
-20.59
-6.47
13.94
34.20
46.99
48.11
38.77
25.48
16.07
15.46
22.81
31.96
35.43
28.97
13.80
-3.69
-16.08
-19.27
-14.72
-8.59
-7.63
-14.80
-27.63
-39.34
-43.07
-36.21
-21.84
-7.15
0.98
0.41
-5.39
-9.36
-5.38
7.48
24.42
37.49
40.45
32.77
19.79
9.38
7.49
14.58
25.78
33.99
33.84
24.78
10.83
-2.29
-10.20
-12.20
-10.91
-10.37
-13.63
-20.75
-28.80
-33.61
-32.10
-24.35
-13.96
-6.59
-6.71
-14.75
-26.13
-33.37
-30.19
-15.43
5.70
24.03
31.56
25.78
11.41
-2.73
-8.78
-4.17
7.22
18.13
22.67
19.42
12.19
6.72
6.61
11.22
16.00
15.92
8.88
-2.95
-14.14
-19.44
-17.27
-10.54
-5.44
-7.62
-18.55
-34.48
-47.93
-51.69
-43.07
-25.23
-5.80
7.44
11.10
7.92
5.05
10.10
26.35
50.81
75.73
92.37
95.85
87.26
72.51
58.64
49.72
44.56
37.89
23.97
0.57
-28.97
-57.05
-76.00
-82.26
-78.15
-70.50
-66.26
-68.21
-73.32
-74.34
-64.18
-40.80
-8.34
24.10
47.17
56.01
52.51
43.57
37.24
37.75
43.21
47.38
43.26
27.97
4.95
-18.18
-33.61
-37.73
-33.20
-26.85
-25.36
-31.52
-42.17
-50.08
-48.47
-34.53
-11.79
11.83
28.59
34.90
33.14
30.10
32.30
41.85
55.37
65.64
66.35
56.06
38.68
21.51
10.89
8.38
10.40
10.50
2.92
-13.72
-35.35
-55.06
-66.19
-66.04
-57.42
-46.55
-39.69
-39.55
-43.12
-43.70
-35.40
-16.50
8.22
29.88
40.85
38.75
27.67
16.21
11.77
16.29
25.57
31.46
27.32
12.58
-7.06
-22.59
-26.84
-19.22
-5.65
5.16
6.42
-2.44
-15.32
-23.63
-21.20
-7.72
10.39
24.13
27.01
18.29
3.57
-8.68
-12.54
-7.37
2.07
8.45
6.95
-1.80
-12.81
-19.09
-16.08
-4.72
9.72
20.48
22.87
17.28
8.61
2.65
3.23
9.59
16.79
19.18
13.46
0.48
-14.40
-24.47
-25.62
-18.01
-6.72
1.11
0.73
-7.70
-19.41
-27.01
-25.19
-13.71
2.80
16.85
22.35
18.40
9.26
1.70
1.20
7.94
17.04
21.82
17.60
4.79
-10.54
-20.77
-20.88
-11.07
2.53
11.83
11.78
2.79
-9.36
-16.81
-15.15
-5.56
6.20
12.86
10.59
1.48
-8.35
-12.16
-6.43
6.41
19.88
27.38
25.50
15.97
4.48
-3.55
-5.73
-3.82
-2.57
-6.13
-15.00
-25.85
-33.05
-31.93
-22.14
-7.71
4.88
10.03
6.24
-2.87
-11.10
-12.77
-6.15
5.44
15.60
18.30
11.33
-2.13
-15.22
-21.10
-16.53
-3.85
10.45
19.43
19.57
12.45
3.72
-0.81
1.44
8.54
15.20
16.40
10.73
1.20
-6.61
-7.60
-0.75
10.14
18.91
20.34
13.26
1.69
-7.76
-9.93
-3.59
7.52
16.60
18.13
11.01
-1.18
-11.92
-15.59
-11.04
-1.83
6.11
7.74
2.21
-6.52
-12.40
-11.07
-2.25
9.49
17.36
16.27
5.88
-9.21
-21.63
-25.52
-20.09
-9.57
-0.76
0.97
-5.05
-14.30
-20.04
-17.45
-6.10
9.15
21.14
24.42
18.28
6.78
-3.14
-6.14
-1.73
5.89
10.32
6.63
-5.18
-19.77
-29.57
-28.87
-16.79
1.44
17.60
24.97
21.70
11.39
1.34
-2.39
1.40
9.06
14.32
12.30
2.91
-8.94
-16.72
-16.34
-8.50
1.14
5.64
1.33
-9.75
-21.21
-25.57
-18.75
-3.04
14.26
24.83
23.40
10.49
-7.64
-22.62
-28.54
-24.35
-13.98
-3.80
1.50
1.48
-0.62
-0.19
5.49
15.21
24.33
27.68
22.42
9.95
-4.51
-14.58
-16.01
-8.91
2.22
10.87
12.15
5.57
-4.62
-12.19
-12.63
-6.33
1.68
4.83
-0.60
-12.95
-25.69
-31.18
-25.31
-9.66
9.39
24.08
29.36
25.35
16.60
9.04
6.61
9.19
12.59
11.31
2.04
-13.94
-31.14
-42.27
-42.11
-30.57
-12.73
4.27
15.08
18.70
18.47
18.86
21.69
24.46
21.96
10.13
-10.20
-31.88
-44.38
-38.92
-13.49
25.58
65.78
93.97
102.28
91.53
69.50
46.39
29.07
17.32
4.80
-15.95
-47.47
-84.41
-114.90
-126.56
-113.45
-79.81
-37.61
-0.13
24.52
36.90
43.86
52.38
63.83
73.37
73.07
57.16
26.83
-9.30
-39.50
-54.72
-52.41
-37.46
-19.46
-7.31
-4.92
-9.56
-14.38
-12.11
0.77
21.42
42.30
55.45
56.80
47.82
34.68
24.10
18.90
16.19
9.85
-5.10
-28.88
-55.76
-76.78
-84.96
-79.93
-67.82
-57.75
-56.66
-64.77
-74.74
-76.28
-62.32
-33.27
3.35
36.63
58.30
67.18
69.07
72.28
82.15
97.95
113.13
118.75
108.87
83.99
50.76
18.39
-5.70
-19.07
-25.10
-30.20
-39.29
-52.39
-64.22
-66.61
-53.26
-24.08
13.63
48.26
69.38
72.44
60.91
43.14
27.13
15.39
3.82
-15.15
-47.13
-90.60
-135.95
-169.28
-179.28
-163.03
-127.56
-85.92
-50.04
-24.79
-6.24
14.16
42.23
75.74
104.44
115.32
100.62
63.25
15.80
-25.90
-51.45
-60.65
-62.05
-66.28
-78.48
-94.26
-101.86
-89.76
-53.55
0.74
59.41
107.89
137.21
147.31
144.83
137.48
128.79
116.47
94.62
58.86
10.98
-39.76
-80.02
-98.19
-89.76
-59.75
-19.89
16.71
41.58
53.68
58.01
61.05
65.64
68.64
62.87
42.02
5.37
-39.89
-80.94
-105.25
-106.04
-85.40
-52.36
-18.38
7.76
22.90
29.63
32.67
34.79
34.39
26.57
6.60
-25.93
-64.24
-95.91
-108.02
-93.35
-54.58
-3.26
44.89
77.04
88.36
82.92
69.31
54.51
39.93
21.91
-4.06
-38.61
-75.17
-102.07
-108.20
-89.06
-49.95
-3.11
38.08
65.65
79.70
86.51
92.43
98.46
98.88
85.12
51.83
1.73
-53.45
-97.61
-117.51
-108.76
-77.47
-36.29
1.71
28.75
44.44
53.94
62.66
71.78
76.67
69.66
45.50
5.58
-40.55
-78.57
-95.98
-88.08
-60.40
-25.07
5.43
24.39
33.00
37.91
45.38
55.95
63.26
58.07
34.51
-5.05
-49.71
-84.62
-98.19
-87.77
-60.91
-30.55
-7.74
3.92
9.25
17.22
33.94
57.48
77.48
80.86
59.76
17.16
-34.01
-76.91
-99.16
-98.59
-83.20
-65.24
-53.24
-47.41
-40.70
-24.95
2.35
34.55
57.50
56.94
26.24
-28.85
-92.25
-144.35
-170.69
-167.73
-143.49
-112.61
-88.31
-76.43
-73.94
-72.59
-64.63
-47.39
-24.69
-3.65
9.81
15.65
20.01
31.96
59.03
103.75
162.79
228.40
291.80
345.70
386.50
413.56
427.75
430.19
421.16
400.40
367.20
323.47
269.89
207.38
136.88
58.79
-26.94
-119.95
-217.71
-313.97
-398.83
-462.04
-495.89
-498.49
-474.06
-430.74
-379.04
-324.56
-268.66
-210.17
-148.40
-84.59
-22.57
32.72
77.32
109.87
132.23
147.62
158.99
167.10
170.66
167.40
155.16
133.95
106.65
79.18
57.47
45.62
44.39
51.34
61.48
68.80
68.52
58.44
39.59
14.79
-12.82
-40.98
-67.91
-91.22
-106.88
-109.79
-96.38
-67.50
-30.58
2.20
18.85
13.28
-11.82
-46.43
-78.40
-99.39
-107.86
-107.42
-102.24
-93.03
-76.80
-50.34
-14.78
22.14
48.36
53.40
34.38
-1.34
-38.94
-63.29
-66.46
-51.05
-28.10
-10.65
-6.74
-15.70
-29.69
-39.09
-38.50
-29.30
-18.03
-11.66
-13.06
-19.18
-23.22
-18.95
-4.43
16.83
38.05
52.84
58.41
56.52
51.99
49.76
52.33
58.57
64.77
67.10
63.73
55.81
46.54
39.26
35.62
34.86
34.38
31.53
25.10
16.28
8.14
4.11
6.06
12.82
20.33
23.39
18.68
7.47
-4.04
-7.22
4.35
31.00
66.53
101.41
127.60
142.20
147.58
147.47
142.97
130.50
103.89
59.38
0.09
-63.03
-115.12
-143.48
-143.33
-119.61
-84.73
-52.88
-34.05
-30.79
-38.74
-50.62
-61.04
-69.85
-81.25
-99.84
-125.64
-151.65
-165.78
-156.70
-119.96
-61.41
5.12
64.06
104.60
124.47
128.73
124.55
116.10
102.17
78.05
40.24
-8.68
-58.81
-96.13
-108.73
-92.91
-55.26
-9.57
30.18
56.21
69.74
78.33
89.51
105.05
118.64
119.43
98.89
56.62
1.80
-50.74
-87.76
-103.81
-103.37
-97.37
-96.15
-103.28
-113.45
-116.14
-101.91
-68.55
-23.16
20.82
50.01
57.81
46.93
26.81
7.31
-6.64
-17.10
-30.45
-51.42
-78.18
-101.12
-107.33
-87.72
-42.74
16.62
73.76
114.40
132.55
132.12
122.51
111.78
102.03
89.06
66.59
31.99
-10.15
-48.69
-71.33
-70.36
-46.98
-10.68
24.90
47.96
53.30
43.51
26.48
10.06
-2.27
-13.02
-28.28
-53.13
-86.86
-121.71
-145.80
-148.53
-126.51
-85.92
-39.38
0.83
28.98
48.18
66.94
92.34
124.40
154.79
170.90
163.36
131.77
85.59
39.05
3.56
-18.16
-32.18
-48.81
-75.69
-112.33
-149.63
-173.99
-174.32
-147.91
-102.02
-49.86
-3.83
30.62
56.28
80.42
108.68
139.89
165.70
174.71
159.40
121.36
71.24
23.58
-10.87
-30.45
-42.36
-57.46
-82.92
-116.96
-149.18
-166.04
-158.45
-127.48
-84.23
-43.94
-17.76
-6.80
-2.55
7.18
30.38
65.88
103.80
131.25
139.80
130.21
111.69
96.22
91.69
97.45
105.24
104.13
86.85
54.00
13.85
-22.28
-46.12
-56.85
-61.24
-69.00
-86.42
-111.56
-134.81
-144.16
-131.76
-98.60
-54.36
-12.50
16.50
30.07
33.78
36.68
44.90
57.27
65.85
61.06
38.37
2.20
-35.53
-61.53
-67.89
-55.84
-34.29
-14.05
-1.79
3.13
7.22
17.26
34.92
54.68
66.25
60.30
34.20
-5.59
-46.26
-74.69
-83.68
-74.75
-56.31
-38.10
-25.75
-18.25
-9.61
5.76
28.23
51.34
64.47
58.35
30.71
-11.47
-54.39
-83.47
-89.90
-74.19
-45.05
-13.87
11.20
28.53
42.24
57.34
74.78
89.29
91.81
74.60
36.77
-13.78
-63.08
-97.11
-108.13
-97.75
-75.18
-51.52
-33.56
-20.92
-7.33
13.99
44.70
78.55
104.02
110.21
93.11
58.53
19.07
-12.48
-29.47
-34.41
-36.44
-44.74
-62.05
-82.35
-93.79
-85.62
-54.91
-9.33
36.21
66.57
73.75
60.17
35.89
12.06
-5.52
-18.94
-35.60
-61.96
-97.60
-133.52
-155.94
-153.58
-124.07
-75.91
-24.30
16.44
39.12
45.59
42.87
36.71
27.60
10.97
-18.29
-60.47
-108.06
-147.72
-166.16
-156.68
-122.69
-76.50
-33.45
-4.79
6.64
6.69
5.01
8.73
18.31
28.22
31.42
24.75
11.75
0.96
1.91
19.95
54.44
99.74
148.47
194.89
236.45
273.34
306.00
334.06
355.20
365.61
361.44
340.21
301.62
247.27
182.22
110.28
35.61
-37.02
-102.48
-156.42
-196.81
-224.46
-242.90
-257.27
-272.40
-290.44
-310.82
-331.42
-349.94
-364.45
-372.85
-373.12
-361.79
-335.19
-290.96
-229.87
-155.83
-74.36
9.18
91.75
171.81
248.68
321.82
390.28
452.37
505.44
545.45
566.47
561.36
527.73
465.35
380.28
285.10
195.35
123.77
75.51
47.02
28.07
8.88
-16.54
-48.14
-81.85
-113.31
-140.82
-165.56
-189.79
-214.45
-238.17
-258.64
-273.46
-281.87
-285.17
-286.20
-287.83
-291.55
-296.84
-301.22
-301.63
-295.26
-280.98
-258.97
-230.82
-198.80
-165.15
-131.36
-97.95
-64.95
-32.07
0.61
32.37
61.70
86.68
105.57
117.55
123.32
124.89
125.02
126.27
129.97
135.83
142.56
149.18
156.37
166.69
182.91
205.45
230.82
252.29
262.75
258.74
241.93
217.36
190.08
161.49
128.79
88.37
40.85
-6.47
-42.19
-57.45
-52.05
-35.73
-22.99
-24.18
-39.01
-57.12
-65.12
-55.41
-31.00
-3.14
16.36
22.31
18.57
13.84
14.96
22.06
28.79
26.71
11.01
-16.54
-48.39
-74.48
-87.10
-84.08
-70.02
-54.43
-47.74
-56.20
-77.87
-102.65
-116.95
-111.42
-86.44
-52.28
-22.98
-7.64
-4.87
-4.54
4.48
26.19
54.25
75.85
79.96
64.13
35.55
6.22
-14.36
-23.97
-27.55
-32.97
-45.54
-64.72
-84.32
-95.33
-90.26
-66.72
-29.29
11.84
44.94
61.98
62.53
53.88
46.55
47.50
55.40
60.97
52.83
25.60
-14.97
-53.89
-75.06
-70.60
-45.50
-14.56
6.87
12.11
6.39
2.27
10.44
32.34
59.04
76.79
75.43
54.19
21.33
-11.23
-34.55
-46.40
-50.50
-52.44
-55.43
-58.37
-56.88
-46.15
-24.02
7.12
40.41
66.41
76.53
66.78
40.35
6.96
-21.29
-35.85
-36.16
-29.66
-27.10
-35.20
-51.37
-64.56
-61.78
-36.77
4.82
47.11
72.36
71.10
47.32
15.56
-8.15
-15.91
-11.55
-6.42
-10.37
-23.88
-37.15
-36.61
-14.70
23.73
62.52
82.79
73.49
37.83
-8.47
-45.82
-61.06
-53.01
-31.05
-7.76
8.59
17.58
24.50
34.23
46.36
54.22
49.06
26.07
-11.36
-51.93
-81.45
-89.55
-74.28
-42.30
-5.12
26.35
45.74
52.22
48.79
39.23
25.76
8.75
-11.93
-35.01
-56.65
-70.88
-71.76
-56.19
-26.05
11.80
47.17
69.80
72.84
55.54
23.87
-11.71
-39.92
-52.75
-47.97
-29.16
-3.36
22.26
42.88
56.42
62.19
59.46
46.77
23.29
-8.93
-43.43
-70.47
-80.67
-69.31
-38.92
1.55
40.27
67.23
77.58
72.10
55.15
31.72
5.74
-19.82
-41.54
-54.71
-53.92
-35.70
-1.60
40.56
78.33
99.15
95.66
69.35
30.58
-5.53
-25.83
-24.95
-7.21
16.27
33.94
39.64
35.16
27.76
24.57
27.45
31.42
27.83
10.11
-21.51
-59.01
-90.54
-106.60
-105.07
-92.23
-79.23
-76.07
-86.65
-107.02
-127.73
-138.75
-134.31
-115.29
-88.01
-60.65
-39.20
-25.08
-15.46
-5.86
6.92
22.89
38.98
50.94
55.79
53.48
46.91
40.31
37.18
38.60
43.03
47.49
49.36
47.75
43.70
39.13
35.59
33.25
30.98
27.41
22.05
15.97
11.32
10.17
13.17
19.10
25.44
29.79
31.21
30.85
31.25
34.70
41.65
50.09
56.27
56.55
49.36
36.18
21.04
8.56
1.73
0.56
2.23
2.70
-1.15
-9.84
-21.18
-31.57
-37.87
-39.00
-36.30
-32.55
-30.38
-30.88
-33.38
-36.32
-38.62
-40.51
-43.46
-49.02
-57.53
-67.39
-75.80
-80.20
-79.85
-76.25
-72.23
-70.05
-69.77
-68.75
-62.81
-48.49
-25.00
4.88
35.68
61.24
76.88
81.06
75.31
63.17
48.49
33.87
20.32
8.01
-2.34
-8.50
-7.28
3.63
23.64
48.24
70.08
81.88
79.84
65.68
45.57
26.79
13.81
6.45
1.13
-5.22
-11.83
-13.63
-4.23
19.06
51.46
80.97
92.90
76.90
32.59
-28.71
-88.05
-126.40
-132.14
-105.33
-57.02
-4.14
37.37
58.36
58.04
41.79
16.74
-11.78
-41.02
-68.65
-89.99
-97.34
-82.84
-43.44
14.91
77.03
122.98
136.02
109.96
52.62
-16.75
-74.66
-102.48
-93.15
-52.90
2.56
55.12
91.26
105.62
100.05
79.91
50.18
14.17
-25.16
-62.65
-89.83
-97.40
-79.96
-40.38
9.48
52.87
75.47
72.06
48.79
19.70
-1.04
-6.68
-1.11
4.02
-3.31
-27.80
-63.02
-94.38
-106.53
-91.44
-52.43
-2.52
42.11
69.40
75.85
65.72
46.59
24.48
1.24
-23.72
-49.68
-71.49
-80.10
-66.68
-28.41
27.71
85.55
125.30
131.59
100.17
40.30
-28.66
-84.69
-111.56
-103.98
-68.35
-18.58
30.24
67.38
88.63
94.43
86.69
66.12
32.59
-12.21
-61.84
-104.45
-126.53
-118.98
-82.66
-29.57
21.62
53.97
60.14
45.33
23.79
10.23
11.65
23.58
33.22
27.29
0.27
-41.64
-83.34
-108.19
-106.33
-78.77
-35.98
8.15
42.93
64.64
75.73
80.48
80.67
73.69
54.88
22.04
-20.50
-61.56
-87.17
-87.29
-61.33
-19.07
23.59
52.18
60.04
50.24
32.20
15.23
3.38
-5.75
-17.28
-33.49
-50.33
-58.58
-49.27
-20.26
20.43
57.04
73.07
59.51
19.92
-30.30
-70.35
-83.26
-63.32
-18.42
33.65
73.08
86.56
72.06
38.13
-1.51
-34.78
-55.76
-64.97
-65.51
-58.94
-43.41
-15.66
24.54
70.82
110.17
127.37
112.15
64.99
-1.52
-66.75
-110.15
-119.43
-94.94
-48.36
3.37
45.52
70.97
80.70
79.75
71.98
56.85
30.57
-9.48
-59.90
-109.61
-143.37
-148.51
-121.55
-70.64
-12.51
35.16
61.39
65.80
56.85
45.64
39.27
37.43
34.04
22.58
1.85
-21.84
-37.58
-36.14
-15.82
15.59
44.61
59.33
55.71
39.46
22.28
14.54
19.16
30.00
35.94
27.98
5.25
-23.74
-45.63
-49.76
-34.27
-7.11
18.37
31.14
28.29
16.20
5.83
5.50
15.45
27.52
30.20
16.05
-12.82
-44.94
-65.41
-64.24
-41.88
-9.11
19.15
32.12
28.56
16.64
7.87
9.43
19.34
27.65
22.81
-0.42
-36.38
-70.33
-85.83
-73.77
-37.36
9.25
48.01
65.78
59.91
38.16
13.46
-3.06
-6.98
-1.02
8.27
15.23
18.30
19.87
23.50
30.47
38.16
41.02
33.75
14.60
-13.09
-41.82
-63.19
-71.69
-67.12
-54.40
-40.96
-33.12
-33.27
-39.22
-45.99
-48.82
-45.76
-38.37
-30.54
-26.00
-26.09
-29.12
-31.41
-29.50
-22.10
-10.74
1.29
10.76
16.27
18.66
20.07
22.29
25.49
28.09
27.91
23.81
16.79
9.81
6.32
8.44
15.73
25.36
33.45
37.00
35.18
29.51
22.71
17.14
13.70
11.76
10.05
7.91
6.00
5.99
9.46
16.61
25.72
33.76
37.79
36.61
31.63
26.31
24.45
28.21
36.73
46.33
52.06
49.93
38.62
20.02
-1.82
-22.46
-38.79
-49.82
-56.44
-60.45
-63.33
-65.56
-66.58
-65.49
-61.78
-56.08
-50.13
-46.20
-45.99
-49.64
-55.31
-59.68
-59.25
-51.78
-37.14
-17.23
4.87
26.11
44.18
57.40
64.34
63.56
54.17
36.95
15.65
-2.98
-10.94
-2.57
22.21
56.52
88.40
105.56
100.82
75.17
36.81
-3.28
-36.50
-59.56
-73.58
-80.53
-79.89
-68.37
-42.92
-5.21
36.21
67.95
77.58
60.17
21.81
-22.22
-53.86
-60.36
-39.75
-1.17
39.78
68.33
76.65
66.03
44.21
19.87
-2.23
-22.62
-44.38
-68.32
-89.74
-99.39
-88.75
-56.22
-10.15
33.48
58.13
54.86
26.92
-11.71
-42.96
-53.10
-38.44
-5.59
33.05
65.71
86.11
94.50
94.74
89.97
79.75
60.49
29.09
-12.62
-55.83
-86.90
-93.49
-71.31
-28.00
18.87
48.99
48.68
17.42
-31.78
-78.75
-105.72
-104.89
-80.52
-44.93
-11.46
11.33
21.22
19.97
9.56
-9.69
-37.93
-73.01
-108.38
-133.92
-139.56
-119.99
-77.62
-22.26
32.26
73.44
94.66
97.24
89.01
79.88
77.11
82.24
91.29
97.85
97.40
90.00
80.18
73.64
73.13
76.07
75.37
63.23
36.01
-2.85
-43.59
-74.72
-88.87
-86.80
-77.09
-71.29
-77.20
-93.83
-111.46
-117.06
-102.02
-67.70
-25.35
9.73
26.45
23.88
11.33
2.31
6.31
23.21
43.69
55.22
50.03
30.25
7.02
-5.91
0.01
23.46
54.19
78.93
88.51
82.14
66.91
52.74
46.21
46.93
48.06
40.85
20.46
-10.11
-40.49
-57.92
-53.90
-29.20
5.95
36.67
50.87
45.20
26.11
5.29
-7.85
-11.83
-13.71
-24.15
-50.00
-88.56
-127.51
-150.79
-147.09
-116.11
-69.06
-22.91
8.26
19.84
17.77
13.24
14.76
22.65
28.99
23.27
-0.05
-36.55
-72.80
-92.88
-86.79
-55.68
-11.21
30.79
58.47
69.29
69.78
70.13
77.08
89.68
99.91
97.94
78.47
44.69
7.29
-20.89
-31.44
-24.57
-8.48
5.61
9.95
4.56
-3.15
-3.39
9.52
33.09
57.15
69.14
60.84
33.21
-4.01
-37.37
-56.71
-60.02
-53.35
-46.16
-44.94
-48.88
-50.33
-39.96
-13.43
24.54
61.04
80.98
74.97
44.72
2.57
-34.75
-54.83
-55.68
-45.76
-37.94
-41.10
-54.28
-67.01
-66.00
-43.87
-4.72
36.95
63.34
62.87
36.32
-3.73
-40.08
-60.16
-62.05
-54.00
-47.99
-51.53
-62.62
-70.91
-64.48
-37.82
4.10
47.65
77.49
84.41
69.75
43.87
19.84
6.37
3.85
5.64
3.34
-7.13
-22.39
-33.11
-29.62
-7.90
27.36
64.40
89.74
94.67
79.16
51.30
22.64
2.20
-7.50
-10.21
-12.25
-17.42
-24.02
-25.56
-15.22
9.17
42.29
72.91
88.92
83.43
58.57
24.60
-5.49
-22.63
-26.02
-22.59
-22.13
-30.82
-46.90
-61.36
-63.33
-46.88
-15.38
19.58
44.08
49.35
36.67
16.39
1.69
0.90
12.79
27.55
32.82
21.09
-5.73
-37.21
-60.53
-67.84
-60.58
-48.30
-42.47
-49.11
-64.52
-77.07
-74.13
-49.85
-9.12
34.53
66.06
76.63
67.65
48.91
31.96
23.22
20.87
17.04
3.90
-20.41
-49.26
-70.37
-72.21
-50.52
-10.88
33.62
68.60
84.99
82.45
68.05
51.07
37.36
26.60
13.86
-5.69
-32.19
-59.06
-75.77
-73.27
-49.40
-10.72
30.15
60.48
73.40
70.55
60.19
51.57
49.22
50.46
47.33
32.01
2.24
-35.92
-70.41
-88.89
-85.31
-63.09
-33.49
-9.55
0.83
-1.00
-5.90
-3.06
13.05
38.89
63.55
75.12
67.72
45.14
18.77
0.82
-2.96
3.47
8.77
1.09
-24.60
-62.75
-99.47
-119.54
-114.47
-86.99
-49.46
-17.17
-0.04
2.29
-0.85
2.20
17.35
40.60
59.75
61.54
39.57
-0.99
-45.47
-77.00
-85.08
-70.49
-43.93
-19.28
-5.49
-2.17
-0.85
8.40
29.62
57.46
79.29
82.21
60.59
20.16
-24.44
-56.71
-66.30
-53.50
-27.77
-1.63
16.40
25.70
32.41
43.86
62.44
82.76
93.77
85.13
53.85
7.80
-37.08
-63.89
-62.97
-36.24
4.18
42.28
65.87
71.24
62.98
48.94
34.48
19.28
-1.23
-31.01
-68.37
-104.20
-125.12
-120.34
-87.98
-37.55
13.21
45.75
49.10
24.65
-14.75
-51.26
-70.39
-67.15
-46.62
-19.40
5.06
23.33
38.12
53.98
71.86
86.43
88.14
69.14
29.39
-20.87
-64.31
-84.41
-73.56
-37.07
8.96
45.06
57.25
43.00
11.34
-22.59
-45.50
-51.79
-44.47
-31.19
-18.29
-6.77
7.26
28.16
55.68
82.50
96.70
87.95
54.02
3.78
-45.48
-75.79
-76.85
-50.97
-11.76
22.66
38.34
31.70
9.85
-14.54
-30.66
-34.79
-30.60
-24.57
-20.41
-15.82
-4.44
18.88
52.54
86.50
105.87
98.06
59.81
0.24
-61.80
-105.39
-116.38
-93.14
-46.95
3.49
40.41
54.55
48.00
31.34
16.94
12.35
17.40
26.14
32.02
32.43
29.78
28.30
29.51
29.56
20.73
-3.48
-42.84
-88.09
-123.57
-134.08
-112.43
-63.52
-3.18
48.14
73.71
67.37
35.48
-6.77
-42.72
-61.38
-60.92
-47.07
-28.09
-9.46
8.06
26.28
45.27
60.52
64.08
49.51
17.48
-22.05
-52.96
-60.73
-40.20
0.96
45.33
73.62
73.54
45.12
0.20
-43.53
-70.60
-73.90
-56.07
-26.12
6.18
34.83
58.65
78.79
94.57
101.31
91.63
59.92
7.31
-55.91
-112.56
-144.91
-142.29
-105.87
-48.51
10.53
53.45
70.75
63.95
43.01
20.05
3.15
-6.78
-14.35
-24.68
-38.24
-49.28
-49.10
-31.94
-0.00
35.96
61.39
65.52
47.24
15.93
-13.50
-28.63
-25.84
-11.42
3.15
8.47
2.96
-6.61
-9.90
-0.18
20.92
43.50
54.71
45.96
18.26
-17.78
-47.24
-58.47
-48.76
-25.03
0.57
17.60
22.65
20.36
19.30
25.65
38.61
50.28
50.15
31.71
-2.68
-41.75
-70.45
-77.45
-60.71
-28.35
5.81
29.25
36.62
31.45
22.66
18.32
20.57
24.41
21.23
4.77
-23.80
-55.09
-75.83
-75.83
-53.77
-18.31
16.10
36.65
38.56
27.14
13.86
9.23
16.44
29.67
37.84
31.78
10.33
-18.14
-40.31
-45.56
-32.31
-9.11
10.20
14.57
2.34
-17.55
-30.68
-25.55
-0.20
36.58
70.16
87.99
86.01
69.90
50.75
37.66
32.29
28.23
15.59
-12.16
-52.96
-95.57
-124.46
-127.26
-100.96
-53.45
0.25
45.05
72.16
81.60
79.75
73.51
65.33
51.73
26.48
-14.01
-66.20
-118.79
-156.84
-168.37
-150.01
-108.57
-57.73
-11.66
21.04
39.76
50.18
58.85
68.25
74.84
71.33
51.92
17.16
-24.23
-58.64
-73.73
-64.79
-37.06
-3.10
23.82
36.35
36.05
31.20
30.72
38.24
49.63
55.59
47.76
24.43
-7.24
-34.67
-46.38
-38.29
-15.81
9.15
24.82
25.92
16.12
5.38
3.49
13.91
31.50
45.32
45.17
27.77
-0.55
-27.22
-40.35
-35.53
-18.38
-1.06
4.89
-4.20
-21.50
-33.37
-27.49
-0.24
40.42
78.67
98.76
92.84
64.59
26.38
-7.86
-29.84
-40.13
-45.91
-54.95
-69.66
-84.64
-89.62
-75.95
-42.66
1.47
41.44
63.25
61.12
40.57
15.22
-0.60
0.66
16.25
35.63
47.02
44.23
29.82
13.14
3.74
5.14
12.23
14.09
0.73
-30.18
-70.31
-103.82
-114.89
-95.84
-51.14
4.47
52.77
79.99
82.13
64.64
37.76
10.37
-13.94
-36.34
-59.08
-81.24
-96.67
-96.53
-74.62
-32.49
19.13
63.77
86.42
80.63
51.60
13.82
-16.36
-28.61
-23.06
-8.89
1.82
1.36
-9.10
-20.79
-23.02
-9.90
15.93
44.79
65.50
71.55
64.30
51.21
40.35
34.99
31.28
21.05
-2.42
-38.93
-79.22
-108.29
-112.34
-86.10
-36.14
21.05
65.71
83.11
69.61
33.36
-10.37
-46.59
-66.90
-71.28
-65.30
-54.71
-41.24
-22.28
5.39
40.61
75.46
97.31
95.06
65.72
17.56
-32.34
-65.74
-71.63
-51.21
-16.63
15.62
33.13
33.21
23.09
14.40
15.80
27.71
42.23
48.16
37.93
12.71
-18.06
-41.81
-49.68
-41.13
-23.37
-6.13
4.55
9.70
16.10
30.77
54.80
80.80
95.49
86.42
48.99
-9.71
-72.75
-120.00
-136.41
-117.74
-71.63
-13.67
39.17
74.72
88.88
84.52
67.73
43.72
14.77
-18.77
-55.48
-90.13
-113.82
-117.54
-97.25
-57.51
-11.03
26.38
43.21
37.82
19.02
1.13
-3.94
6.90
26.66
42.69
44.13
28.30
1.95
-23.01
-36.61
-36.46
-28.44
-22.03
-23.46
-31.00
-35.42
-25.85
2.79
45.26
87.06
110.89
105.14
69.86
17.15
-34.50
-68.72
-78.17
-66.40
-44.22
-22.93
-8.24
1.54
12.26
28.32
48.30
64.99
69.72
58.49
35.63
12.35
0.72
6.49
25.25
44.07
48.12
28.26
-13.88
-66.19
-111.24
-133.92
-127.57
-95.98
-50.61
-4.84
31.71
55.98
70.01
77.23
78.73
72.32
54.77
25.75
-9.41
-40.21
-55.46
-49.29
-25.22
4.38
23.68
21.22
-4.03
-41.53
-73.96
-85.49
-69.36
-30.65
16.88
57.84
82.36
89.24
83.91
73.25
60.70
44.89
22.27
-8.29
-42.22
-69.72
-80.37
-69.38
-41.43
-9.83
9.26
4.85
-23.12
-63.05
-96.92
-109.06
-93.50
-56.34
-11.94
24.75
45.38
51.05
49.39
48.42
51.14
54.29
51.78
40.17
22.61
8.21
7.10
23.90
53.78
83.57
97.49
84.83
45.32
-10.08
-63.73
-99.08
-107.51
-91.41
-61.79
-32.21
-11.91
-2.25
1.92
7.29
16.84
27.86
34.36
32.23
23.32
15.37
17.42
33.49
58.42
79.08
80.54
54.00
2.17
-60.67
-114.20
-140.78
-132.88
-96.12
-46.33
-2.28
22.75
26.30
16.44
6.35
6.95
21.58
45.31
68.78
83.73
87.00
80.51
68.39
53.39
35.24
11.98
-16.73
-47.17
-71.83
-82.67
-76.04
-55.76
-32.56
-19.24
-24.22
-46.69
-75.92
-96.34
-95.41
-70.51
-30.80
7.30
28.77
28.20
12.72
-2.22
-1.98
18.92
53.57
86.61
102.91
96.01
71.75
44.45
28.67
31.04
46.95
63.59
67.57
52.43
22.09
-11.72
-36.23
-44.63
-39.52
-30.80
-29.47
-40.88
-61.27
-80.03
-86.05
-74.62
-50.27
-24.18
-7.44
-4.50
-10.66
-15.54
-9.89
8.40
33.10
53.87
62.86
59.53
50.71
45.68
49.75
60.43
68.61
64.10
42.12
6.75
-30.19
-55.18
-60.17
-47.11
-27.14
-14.80
-20.14
-42.94
-72.40
-92.82
-92.10
-68.51
-31.80
2.52
21.96
24.01
17.17
15.06
27.51
53.75
81.97
95.84
84.07
47.63
0.40
-37.94
-52.47
-41.23
-16.25
3.42
2.81
-20.22
-53.43
-77.28
-76.25
-47.95
-4.59
34.25
52.85
48.02
30.05
15.32
15.61
30.62
48.00
51.21
30.03
-12.52
-60.79
-94.90
-101.54
-81.09
-46.81
-16.70
-3.08
-5.97
-14.10
-12.88
5.87
38.61
72.16
91.67
89.40
68.72
41.34
19.73
9.74
8.03
5.25
-7.18
-31.22
-60.72
-84.39
-91.94
-79.24
-50.11
-13.96
18.85
41.50
52.80
56.12
56.33
56.69
57.06
54.45
45.04
26.43
-0.73
-32.15
-60.95
-79.65
-82.91
-69.88
-45.14
-17.14
5.51
18.32
23.11
26.33
34.37
48.40
62.37
65.80
50.20
15.60
-27.74
-63.68
-78.67
-69.18
-43.39
-15.88
1.43
6.35
6.88
14.91
36.96
68.30
94.37
99.01
74.45
27.02
-25.65
-63.86
-75.88
-62.82
-35.97
-8.92
10.10
20.87
28.44
37.36
47.22
52.64
46.80
26.04
-7.32
-45.24
-77.18
-93.99
-91.07
-70.00
-37.97
-5.21
19.14
31.10
33.59
34.34
40.98
55.50
72.02
79.84
70.14
42.53
6.88
-21.77
-31.92
-22.89
-5.72
3.19
-7.85
-38.15
-74.55
-98.86
-98.64
-74.16
-37.58
-5.08
12.91
17.06
16.82
22.41
36.93
53.91
61.41
49.80
18.23
-24.03
-62.01
-82.23
-78.65
-54.75
-21.28
9.28
28.17
33.86
32.10
31.79
39.34
53.92
66.90
66.33
44.33
3.13
-44.54
-81.38
-94.77
-83.02
-55.34
-25.40
-3.06
10.33
20.50
34.10
52.76
71.25
80.56
73.43
48.88
13.37
-21.99
-46.41
-53.78
-44.93
-27.28
-11.06
-4.54
-9.54
-19.96
-25.05
-15.71
9.41
42.01
68.22
76.41
63.74
37.20
8.46
-13.68
-28.02
-40.00
-56.04
-77.57
-98.60
-108.76
-99.41
-68.94
-24.21
22.25
57.96
75.56
75.40
64.75
53.41
48.65
51.21
54.72
49.37
28.09
-7.95
-48.47
-78.75
-87.92
-75.28
-50.78
-28.86
-19.28
-21.16
-24.25
-16.59
7.00
41.02
72.59
89.24
86.08
67.87
45.18
27.72
19.20
16.53
12.62
1.36
-18.87
-43.96
-65.53
-74.44
-65.09
-38.81
-4.03
26.95
43.92
44.25
33.93
23.48
20.55
24.47
26.46
15.90
-11.77
-50.26
-84.92
-100.62
-90.06
-57.62
-16.62
18.09
37.51
41.81
38.63
37.43
43.57
55.18
63.98
59.91
37.06
-1.93
-46.05
-80.62
-94.44
-85.41
-60.85
-32.65
-10.00
5.31
18.21
34.93
56.93
78.44
89.19
80.42
50.24
5.80
-39.63
-72.44
-84.31
-75.45
-53.65
-29.91
-12.73
-4.05
1.19
10.91
29.82
55.09
76.63
82.29
65.18
28.51
-15.17
-50.07
-65.06
-58.68
-38.99
-18.22
-5.81
-3.48
-5.22
-1.62
13.56
38.54
63.39
75.00
64.41
32.69
-9.05
-45.14
-63.30
-60.53
-43.65
-24.14
-11.19
-6.63
-4.84
2.43
19.78
44.09
65.20
71.13
54.87
19.08
-24.46
-60.43
-77.23
-72.04
-51.42
-26.57
-6.89
4.76
12.37
22.48
38.57
57.42
70.03
66.48
42.01
1.02
-44.05
-78.27
-90.89
-79.93
-52.42
-19.84
7.81
26.47
38.55
49.11
60.83
70.86
71.65
55.59
20.23
-28.22
-76.47
-109.40
-116.59
-96.60
-57.52
-12.75
25.05
49.01
59.97
63.57
65.18
65.62
60.40
42.89
9.67
-35.13
-79.74
-109.16
-111.76
-85.05
-37.41
15.51
57.70
79.70
81.87
71.93
58.92
47.35
35.19
16.77
-11.46
-45.92
-75.80
-87.73
-73.32
-34.72
14.82
56.80
76.26
68.88
42.23
10.23
-14.79
-28.09
-33.05
-36.62
-43.25
-50.85
-51.89
-38.50
-8.56
31.06
66.66
83.98
75.39
43.84
1.36
-36.76
-59.09
-62.62
-52.79
-39.40
-30.60
-28.09
-26.69
-18.29
2.10
32.21
62.62
81.27
79.54
57.22
23.02
-9.72
-29.73
-33.43
-26.44
-19.60
-22.00
-35.14
-51.99
-61.08
-53.26
-27.19
9.67
44.78
67.08
72.46
65.00
53.36
44.80
40.59
35.82
23.46
-0.15
-31.44
-59.96
-73.29
-63.87
-33.71
5.85
39.78
57.02
55.79
43.66
32.03
29.01
34.67
41.36
38.61
19.94
-12.77
-49.76
-78.37
-89.49
-82.18
-63.72
-45.28
-35.91
-37.54
-44.29
-46.35
-35.85
-11.66
19.74
47.90
64.19
66.36
59.22
51.10
48.17
50.44
51.60
43.05
19.73
-15.83
-53.36
-79.61
-85.13
-69.30
-40.80
-12.97
3.48
6.01
0.96
-1.11
7.49
26.25
46.46
56.29
47.85
22.19
-10.72
-37.39
-47.89
-40.98
-24.37
-10.01
-7.18
-17.28
-33.19
-43.30
-38.26
-16.18
16.04
46.37
64.28
65.99
55.75
42.47
33.74
31.39
30.70
23.97
6.08
-21.17
-49.32
-67.53
-68.20
-51.09
-23.24
4.84
24.46
32.77
33.34
32.76
35.85
42.42
47.23
43.21
25.95
-2.66
-34.06
-56.65
-61.47
-46.58
-18.01
12.99
35.33
43.02
37.30
24.73
12.29
3.29
-3.98
-13.60
-28.13
-45.19
-57.67
-57.44
-40.53
-11.00
19.86
38.54
36.15
13.35
-19.70
-47.86
-58.59
-47.80
-21.49
8.23
29.88
38.21
35.87
30.22
27.65
29.15
29.75
21.92
1.04
-30.74
-64.46
-88.03
-92.43
-76.32
-47.08
-16.84
3.82
11.22
9.67
8.07
14.51
31.52
54.80
75.78
86.75
85.51
76.42
67.68
65.90
72.03
80.62
82.97
72.50
48.74
17.93
-10.06
-27.12
-31.34
-28.06
-26.91
-36.20
-57.79
-85.51
-108.18
-115.88
-105.55
-82.77
-58.60
-43.36
-40.75
-45.82
-48.05
-37.87
-12.84
20.21
48.90
62.57
58.67
43.94
30.24
27.07
35.92
49.63
56.54
47.41
20.83
-15.55
-48.94
-67.72
-66.95
-50.14
-26.30
-4.83
9.47
18.01
26.45
39.99
59.08
77.81
86.27
76.00
45.33
1.82
-40.36
-66.96
-70.23
-52.31
-23.15
5.27
25.07
35.33
40.71
46.15
52.10
53.19
41.40
11.78
-32.71
-80.24
-114.58
-122.43
-100.19
-56.18
-6.42
32.80
52.21
52.64
42.68
32.11
25.65
20.51
9.13
-14.39
-49.05
-85.51
-109.83
-110.25
-83.44
-36.85
14.49
54.79
74.31
72.57
56.85
37.00
20.04
7.07
-5.60
-21.76
-40.93
-56.89
-60.51
-45.15
-11.49
31.10
67.55
83.91
73.89
41.80
0.89
-32.69
-46.82
-38.24
-13.10
17.49
43.47
60.16
68.28
70.90
69.48
61.91
43.89
13.22
-26.58
-65.43
-90.51
-92.22
-69.37
-30.70
8.26
32.06
32.40
11.72
-18.28
-42.48
-49.63
-37.20
-11.95
14.90
34.25
43.41
46.14
48.39
52.99
56.74
51.86
31.14
-6.26
-52.39
-92.99
-113.76
-107.21
-76.39
-33.54
6.39
32.73
43.60
44.99
45.63
50.73
58.25
59.97
46.92
16.13
-26.24
-66.67
-90.54
-89.59
-65.95
-30.76
2.28
23.92
33.37
36.89
42.15
52.21
62.48
63.21
45.86
9.54
-36.54
-76.29
-94.39
-83.91
-49.68
-5.57
32.72
54.92
59.94
54.21
45.89
39.06
31.04
15.09
-13.84
-53.57
-93.42
-118.13
-115.45
-82.96
-30.10
25.53
65.59
79.02
66.22
37.48
6.95
-14.44
-23.55
-24.36
-23.30
-23.74
-23.21
-14.89
6.74
40.92
78.51
104.93
107.04
80.05
30.74
-24.60
-66.75
-81.66
-66.20
-28.58
16.07
52.52
71.32
71.48
58.49
39.65
19.79
-0.13
-21.29
-43.49
-62.48
-70.84
-62.07
-35.79
0.03
31.33
44.07
31.45
-2.00
-42.01
-71.57
-78.73
-61.63
-28.42
7.58
34.77
47.87
48.00
39.75
27.34
12.39
-5.40
-25.38
-43.64
-53.15
-46.70
-21.34
18.34
60.04
87.80
88.78
59.07
6.54
-51.15
-93.77
-107.02
-88.30
-47.14
-0.41
35.55
52.01
49.96
37.10
21.79
8.43
-3.48
-16.30
-29.77
-38.73
-35.28
-14.28
21.88
62.01
89.84
91.75
63.55
13.27
-41.44
-80.57
-90.28
-68.54
-25.69
20.79
53.58
63.02
50.27
25.11
-0.13
-16.92
-23.37
-23.06
-20.58
-17.37
-10.91
2.15
21.83
42.41
53.93
47.38
20.49
-19.78
-59.17
-82.26
-79.46
-51.64
-9.80
30.00
53.77
55.31
38.41
13.64
-7.70
-19.57
-22.99
-23.48
-26.24
-31.35
-33.48
-25.53
-4.35
25.79
54.00
67.66
59.03
29.48
-10.85
-48.00
-70.25
-72.78
-58.76
-36.25
-13.20
6.28
22.98
40.38
60.34
79.80
90.74
84.09
55.15
8.13
-43.55
-82.49
-94.90
-77.52
-38.70
5.87
40.94
58.56
60.54
54.67
48.24
43.18
35.36
18.45
-9.87
-44.18
-72.73
-82.73
-67.42
-30.14
16.67
57.01
78.58
77.58
59.30
34.15
11.67
-4.46
-17.01
-31.76
-52.38
-76.11
-93.82
-94.72
-72.74
-31.09
17.82
57.63
75.68
68.65
43.64
13.60
-9.80
-21.60
-25.09
-28.30
-37.93
-54.66
-72.12
-80.26
-71.27
-44.66
-8.08
26.23
47.67
52.81
46.96
40.05
40.61
50.35
63.19
69.18
60.44
36.22
3.63
-26.05
-43.54
-46.03
-38.35
-29.56
-27.72
-35.01
-46.34
-52.31
-44.66
-21.28
12.04
44.31
65.13
69.87
61.84
49.57
41.32
39.88
40.96
36.12
18.16
-13.88
-52.55
-85.23
-100.21
-92.74
-67.68
-37.01
-13.53
-3.84
-5.28
-8.22
-2.52
16.10
43.05
67.97
80.88
78.17
64.48
49.36
41.07
41.45
44.95
42.24
26.21
-3.26
-38.21
-66.40
-77.80
-70.09
-50.36
-31.64
-25.62
-36.14
-56.84
-74.75
-77.54
-60.71
-30.00
2.38
24.67
31.97
28.63
24.49
28.45
43.01
63.21
79.88
85.52
78.86
65.47
53.94
50.56
55.59
62.81
63.40
51.19
26.36
-4.22
-30.43
-44.44
-44.67
-36.76
-30.65
-35.12
-52.77
-78.09
-100.04
-107.79
-97.20
-73.69
-49.79
-38.17
-44.42
-63.01
-80.53
-83.36
-65.94
-34.19
-2.25
15.77
14.00
-2.02
-18.94
-23.68
-10.82
14.55
40.56
55.73
55.62
45.09
34.62
33.74
45.28
63.95
79.66
83.99
75.21
59.21
45.93
43.33
52.29
65.80
72.59
63.17
35.20
-4.39
-42.66
-67.25
-72.58
-62.92
-50.02
-46.02
-55.90
-74.69
-89.94
-89.27
-67.99
-32.41
4.08
28.24
34.30
26.98
17.43
16.25
27.12
45.51
61.72
67.40
60.68
46.87
35.19
33.09
41.81
55.16
62.97
56.66
34.04
1.34
-29.87
-48.86
-51.46
-42.39
-32.92
-33.96
-49.21
-72.90
-92.50
-96.00
-79.04
-47.84
-15.31
5.76
9.95
2.09
-6.62
-5.50
9.27
32.91
55.18
67.01
65.79
56.46
48.19
48.32
57.50
68.64
70.73
55.00
20.62
-23.55
-62.91
-84.28
-82.60
-63.74
-41.32
-29.23
-34.32
-52.83
-72.82
-81.20
-71.33
-46.25
-16.26
7.20
18.54
20.62
21.83
30.18
47.97
69.97
86.85
90.85
80.44
61.23
42.75
32.61
31.78
34.13
29.66
10.69
-22.88
-62.40
-94.17
-106.03
-93.64
-63.08
-27.09
1.46
16.01
19.27
19.98
26.51
41.26
58.86
69.48
65.16
44.98
15.92
-10.97
-26.68
-29.03
-23.53
-19.79
-25.88
-42.97
-64.36
-78.60
-75.53
-51.97
-13.78
26.73
56.75
69.13
65.27
53.22
42.18
36.77
34.37
27.45
9.05
-21.64
-57.26
-85.30
-94.96
-82.92
-55.54
-25.57
-5.51
-0.89
-7.74
-15.51
-13.50
2.75
29.05
55.35
71.44
72.82
62.75
49.44
40.52
38.01
36.98
28.57
6.27
-29.14
-68.47
-97.65
-105.06
-87.60
-52.37
-13.33
15.91
29.02
29.16
25.76
28.28
39.94
55.74
66.12
62.45
42.67
12.91
-16.07
-34.73
-39.60
-35.20
-30.80
-34.27
-47.13
-62.91
-70.20
-59.45
-28.99
13.63
54.20
79.23
82.63
67.89
45.64
27.11
17.75
14.94
10.95
-2.15
-26.37
-55.64
-78.87
-85.20
-69.87
-37.21
1.71
34.41
52.71
56.50
52.09
46.92
44.55
41.88
31.15
6.23
-32.02
-74.26
-105.76
-113.87
-94.79
-55.30
-9.86
27.03
47.51
52.94
51.26
51.12
55.94
61.89
61.01
46.01
15.84
-22.34
-56.29
-74.16
-70.44
-48.92
-20.23
3.87
16.47
19.20
20.23
28.15
46.20
69.24
85.98
85.76
64.92
29.26
-8.36
-35.09
-44.70
-40.06
-31.14
-28.72
-37.72
-54.37
-68.26
-68.03
-48.25
-12.81
27.01
57.68
70.39
65.03
48.94
31.92
20.27
12.84
3.01
-16.00
-46.09
-80.91
-108.64
-118.10
-104.63
-72.73
-34.01
-0.79
19.92
28.90
33.41
41.26
55.27
71.40
80.74
74.78
51.41
16.92
-16.78
-37.65
-40.07
-27.55
-10.11
1.28
0.97
-8.02
-16.60
-15.28
0.23
25.66
50.87
65.88
66.06
54.90
41.38
34.02
35.41
40.66
39.49
22.93
-10.68
-53.78
-91.96
-111.23
-105.43
-79.41
-46.43
-21.49
-13.00
-18.70
-28.09
-28.66
-13.68
13.76
43.39
63.74
68.65
60.60
48.07
39.29
37.14
36.66
28.51
5.54
-31.92
-74.50
-107.69
-119.22
-105.52
-73.29
-36.39
-8.19
5.19
6.96
6.86
14.35
32.19
54.65
70.70
70.25
50.63
18.46
-13.53
-33.08
-34.89
-23.02
-7.88
0.22
-2.58
-11.58
-16.55
-8.64
14.00
44.08
68.66
75.84
61.05
29.76
-5.50
-31.50
-41.05
-36.02
-25.50
-20.28
-26.17
-40.79
-54.85
-57.71
-43.97
-16.94
12.94
33.98
39.88
33.26
23.65
21.40
31.37
50.11
68.46
77.43
73.71
61.56
49.87
46.35
52.66
63.42
69.55
63.84
45.45
20.52
-1.26
-12.05
-10.33
-1.67
4.35
-0.64
-18.86
-44.81
-67.87
-78.00
-71.34
-52.91
-34.26
-27.28
-37.65
-60.99
-85.04
-96.61
-88.99
-66.03
-40.06
-24.55
-26.16
-40.74
-55.79
-58.19
-42.16
-12.19
19.50
40.53
45.68
38.95
30.77
30.88
42.33
60.36
75.43
79.27
69.81
52.06
35.00
26.09
26.75
31.86
32.54
21.36
-3.00
-34.48
-62.12
-75.72
-71.48
-53.89
-33.34
-20.66
-20.53
-29.51
-37.93
-35.83
-19.29
7.83
36.01
55.59
62.21
58.27
50.57
45.28
43.57
41.37
31.88
10.32
-22.16
-58.25
-86.95
-99.06
-91.91
-70.36
-44.54
-24.49
-14.77
-12.80
-10.97
-1.73
17.21
41.54
62.83
73.54
71.81
62.13
52.46
48.87
51.39
54.09
48.29
28.11
-5.27
-43.28
-73.30
-84.95
-75.58
-51.41
-24.84
-7.59
-4.59
-11.56
-17.77
-12.80
7.10
36.50
63.68
77.11
72.00
52.43
28.39
9.67
0.00
-4.44
-11.62
-27.74
-51.86
-75.49
-86.70
-76.81
-46.15
-4.27
34.44
57.81
61.82
51.33
36.41
25.56
20.73
17.26
7.16
-14.48
-45.70
-77.34
-97.22
-96.65
-74.68
-39.08
-2.28
24.74
37.41
39.07
37.35
38.86
44.72
49.31
44.41
24.28
-9.23
-46.35
-73.75
-80.64
-64.49
-32.09
4.24
33.01
49.01
54.68
57.28
62.95
71.96
78.62
74.14
52.80
16.46
-25.22
-58.83
-74.03
-68.50
-49.17
-28.14
-15.94
-16.02
-22.91
-26.32
-17.53
5.10
34.22
57.64
64.74
52.56
27.41
0.92
-16.53
-21.85
-20.15
-21.06
-31.82
-51.94
-72.84
-81.90
-69.99
-36.98
7.71
49.30
74.87
79.32
66.84
47.32
30.23
19.71
13.08
4.35
-10.67
-30.18
-45.93
-47.63
-29.10
7.05
49.18
81.35
90.73
73.79
37.80
-3.19
-35.56
-52.66
-56.57
-54.99
-54.89
-57.37
-56.85
-45.27
-18.35
19.74
56.68
77.71
73.03
43.79
2.15
-34.53
-52.12
-46.38
-23.83
3.07
23.35
33.24
36.60
40.63
49.43
60.25
64.21
51.66
18.34
-30.49
-81.41
-118.28
-129.20
-111.69
-73.15
-27.02
13.39
40.02
52.01
53.48
49.28
41.05
26.93
4.00
-27.65
-62.26
-89.35
-98.21
-83.58
-48.74
-4.51
35.57
61.36
69.98
65.76
56.26
47.15
39.00
27.63
7.83
-21.79
-55.73
-82.77
-90.90
-73.66
-34.27
14.27
54.58
72.55
63.87
35.71
3.04
-18.68
-21.20
-5.87
18.11
39.98
52.95
56.47
54.30
49.57
41.78
26.81
0.94
-34.38
-70.66
-94.56
-94.63
-67.27
-20.28
29.98
65.18
73.01
52.72
14.74
-24.44
-50.49
-57.09
-47.53
-31.14
-16.79
-7.96
-1.33
9.25
27.86
52.18
73.89
82.97
73.48
47.73
15.19
-11.79
-24.62
-22.84
-13.62
-7.64
-12.18
-27.11
-44.10
-51.89
-42.44
-16.03
18.48
48.44
63.67
61.93
48.76
33.78
24.28
20.78
17.60
6.45
-17.05
-50.01
-81.87
-99.63
-94.24
-65.41
-22.42
20.51
50.64
62.70
59.84
50.77
43.37
39.41
34.35
20.13
-7.89
-46.89
-85.76
-110.13
-109.67
-83.34
-40.74
3.17
34.98
49.39
50.24
47.07
48.22
55.24
62.51
60.25
41.68
7.40
-33.30
-66.79
-81.89
-75.08
-52.38
-25.06
-3.91
6.76
10.12
14.08
24.96
42.41
59.25
64.37
49.90
15.95
-27.83
-66.64
-87.60
-85.56
-65.78
-39.73
-19.25
-9.70
-8.06
-5.70
5.56
27.28
53.41
73.01
77.06
63.47
38.59
13.19
-3.91
-10.35
-11.49
-15.70
-28.93
-49.76
-69.65
-77.18
-64.39
-32.07
10.60
49.61
73.34
77.42
66.12
48.76
33.49
23.30
14.49
0.86
-21.54
-50.04
-75.49
-86.73
-76.13
-44.76
-1.89
38.64
65.28
73.43
66.72
53.58
41.30
32.17
22.27
5.58
-21.34
-55.06
-85.57
-100.88
-92.80
-62.20
-18.49
24.13
53.77
65.72
63.67
56.09
49.94
46.82
41.63
27.11
-0.94
-39.02
-76.30
-99.42
-98.81
-74.34
-34.79
5.96
36.33
51.81
55.80
55.74
57.19
60.27
58.98
45.91
17.14
-23.55
-65.41
-95.12
-102.94
-87.63
-56.29
-21.21
6.83
22.98
29.93
34.50
42.56
54.67
64.90
64.60
47.30
14.07
-26.29
-60.74
-78.41
-75.82
-57.84
-34.41
-14.53
-1.78
6.99
17.94
35.25
57.15
75.84
81.65
68.72
39.45
4.01
-24.27
-35.71
-29.10
-12.04
3.64
8.45
0.85
-12.13
-19.30
-11.92
10.56
40.27
65.01
74.91
67.75
49.40
29.65
16.30
10.60
7.14
-2.08
-22.24
-51.61
-81.59
-100.93
-101.20
-81.15
-47.26
-10.50
19.00
36.20
42.46
43.06
42.63
41.92
37.06
22.49
-4.90
-42.21
-80.45
-107.69
-114.50
-98.79
-66.64
-30.00
-0.67
15.08
19.25
19.62
24.65
37.77
54.94
67.04
65.53
48.25
21.39
-3.46
-16.04
-13.21
-0.96
9.25
7.67
-7.75
-29.57
-44.75
-42.23
-19.53
15.94
50.26
70.74
71.95
57.92
38.53
22.91
14.14
7.98
-3.13
-24.34
-53.41
-80.79
-94.02
-84.83
-53.60
-10.20
30.93
57.44
64.37
55.42
39.53
25.31
15.88
8.40
-3.66
-24.53
-52.47
-79.00
-92.94
-86.45
-59.84
-22.23
12.75
33.43
36.22
27.02
17.54
18.24
32.58
55.10
75.42
84.21
78.75
64.01
49.13
41.69
43.12
48.26
48.70
38.47
18.02
-5.52
-22.61
-26.77
-18.83
-6.78
-1.67
-11.39
-36.07
-67.27
-92.31
-101.07
-91.35
-70.63
-51.35
-44.54
-52.97
-69.81
-82.18
-78.67
-55.73
-19.81
16.24
40.21
46.90
40.62
31.84
30.97
41.97
61.04
78.80
86.47
81.03
66.69
51.62
42.85
41.38
41.49
34.17
12.75
-22.44
-63.11
-96.62
-112.13
-105.82
-82.97
-54.75
-32.69
-22.58
-22.02
-22.51
-15.16
3.80
30.48
55.78
70.82
72.37
64.52
55.64
52.52
55.54
58.21
50.95
27.45
-10.55
-52.73
-84.94
-95.93
-83.41
-55.14
-25.19
-6.91
-6.19
-18.60
-32.26
-34.52
-19.35
9.71
41.49
64.05
71.39
66.42
57.92
54.25
57.36
61.38
56.52
35.74
0.10
-40.71
-73.11
-86.79
-80.15
-61.10
-42.61
-35.44
-42.63
-58.07
-70.06
-68.02
-48.15
-15.43
19.28
45.08
56.72
56.61
52.24
50.60
53.13
54.70
46.84
23.82
-12.26
-50.88
-77.88
-82.79
-64.80
-33.49
-3.80
11.56
8.96
-4.92
-17.55
-17.77
-2.22
23.79
49.40
65.23
67.92
61.58
54.16
52.22
56.69
62.76
62.97
52.18
31.09
6.33
-13.19
-21.12
-17.55
-9.23
-6.15
-16.00
-39.77
-70.59
-96.80
-107.81
-99.01
-74.37
-43.19
-15.62
3.20
14.63
24.35
37.37
53.91
68.73
74.03
64.77
42.06
13.60
-10.25
-21.84
-20.43
-12.46
-7.79
-14.35
-32.94
-56.45
-73.06
-72.18
-50.34
-13.11
27.37
58.43
72.86
71.83
62.91
54.67
51.36
50.50
45.18
28.96
1.10
-31.83
-58.66
-69.63
-61.74
-40.60
-17.59
-3.10
-0.89
-6.11
-8.89
-0.87
19.03
43.63
61.65
64.32
50.96
28.98
9.30
-0.19
0.58
4.32
0.91
-16.20
-45.86
-79.20
-104.12
-111.35
-99.26
-74.17
-47.31
-28.61
-21.84
-22.82
-22.51
-12.67
8.82
37.02
62.15
75.80
75.43
66.06
56.66
54.73
61.20
70.21
72.16
59.77
32.70
-1.66
-32.21
-49.51
-51.17
-42.40
-33.34
-33.22
-45.37
-65.22
-83.00
-88.97
-78.90
-56.16
-30.09
-10.44
-2.43
-3.56
-5.63
-0.02
16.77
41.23
64.30
77.24
76.64
66.62
55.76
51.88
56.39
63.59
63.54
48.42
17.84
-19.94
-52.22
-68.11
-64.69
-48.08
-30.26
-21.92
-26.93
-39.90
-49.86
-46.67
-27.09
3.63
34.42
55.08
61.44
57.37
51.52
51.66
59.25
68.94
71.27
58.83
31.01
-4.70
-36.63
-54.68
-55.97
-45.72
-34.48
-31.57
-39.65
-52.75
-59.99
-51.90
-26.59
9.15
42.77
63.30
66.62
57.34
44.91
37.42
36.29
36.07
27.85
5.70
-28.81
-66.22
-93.96
-102.66
-91.55
-68.39
-45.58
-33.06
-33.01
-38.79
-39.50
-26.70
0.02
32.80
59.72
72.00
68.57
56.26
44.78
40.21
40.99
39.22
25.93
-2.59
-41.17
-77.54
-98.29
-95.71
-71.93
-37.55
-5.97
13.17
18.49
16.37
16.31
24.93
41.97
60.63
71.31
67.04
47.28
18.53
-8.83
-25.75
-28.95
-22.40
-14.93
-14.75
-24.49
-38.92
-47.80
-42.08
-19.77
12.09
40.84
55.07
51.25
35.31
18.69
11.24
15.07
23.53
25.64
13.00
-14.59
-48.45
-75.39
-84.67
-73.23
-47.09
-17.63
4.56
15.27
17.76
19.90
28.23
43.76
60.91
71.14
68.24
52.11
29.28
9.24
-0.90
-0.46
4.48
4.49
-7.68
-32.52
-62.50
-85.75
-91.87
-77.70
-48.71
-16.45
7.98
19.59
21.77
23.01
30.89
46.60
63.81
72.29
64.28
39.94
7.63
-20.27
-34.41
-33.45
-24.74
-19.39
-25.70
-43.84
-65.41
-77.98
-72.15
-46.89
-10.45
23.88
45.17
49.92
43.56
36.04
35.58
43.45
54.10
58.59
50.88
31.62
8.09
-9.96
-16.24
-11.46
-3.09
-0.55
-10.10
-30.56
-53.73
-68.28
-65.58
-44.13
-10.46
24.08
48.85
58.87
56.67
49.39
44.09
43.00
42.61
36.05
18.41
-9.39
-40.04
-63.36
-71.88
-65.17
-50.01
-36.29
-31.42
-35.75
-42.57
-42.12
-27.45
1.24
36.34
66.75
83.44
84.03
73.30
59.77
50.30
46.23
42.71
32.03
8.45
-27.37
-67.54
-100.05
-114.21
-106.15
-80.34
-47.59
-19.14
-1.47
6.37
10.58
17.80
30.23
43.81
51.05
45.61
27.14
1.94
-20.16
-31.39
-30.44
-22.95
-18.08
-22.82
-37.91
-56.59
-68.34
-64.59
-43.58
-11.75
19.58
39.88
45.38
40.13
33.64
34.54
45.60
61.92
73.99
73.71
58.93
35.40
12.85
-0.06
-1.57
2.63
2.64
-9.51
-34.25
-63.87
-85.70
-89.19
-71.23
-38.33
-2.80
23.89
36.54
38.63
38.58
43.97
55.83
68.02
70.64
56.43
26.09
-11.52
-43.16
-58.37
-54.48
-37.80
-19.64
-9.67
-10.89
-17.95
-21.33
-13.06
8.23
36.23
60.57
72.36
69.17
55.78
40.93
31.81
29.53
28.58
19.85
-3.19
-39.90
-81.43
-114.17
-126.19
-113.05
-79.99
-38.97
-2.81
20.79
31.76
35.71
39.10
44.13
47.13
41.03
20.61
-12.78
-50.20
-78.62
-87.37
-73.60
-43.68
-9.83
16.44
29.72
32.63
32.85
37.56
48.65
61.49
67.60
59.89
37.21
5.51
-24.71
-43.46
-46.15
-35.54
-19.92
-7.99
-3.81
-4.61
-2.93
8.21
29.86
55.35
73.08
72.54
50.52
13.48
-25.20
-51.87
-59.18
-49.20
-31.08
-15.28
-7.40
-5.33
-1.64
10.72
32.91
58.35
75.42
73.83
50.51
11.95
-28.74
-58.25
-69.36
-63.98
-51.07
-41.45
-41.28
-48.80
-55.59
-51.64
-31.70
1.35
37.20
63.83
73.56
67.13
52.69
40.15
35.40
36.17
34.20
20.40
-8.85
-48.01
-84.61
-105.05
-101.83
-77.07
-41.32
-7.83
14.30
24.00
27.49
32.85
44.08
58.05
66.01
58.84
33.19
-5.43
-44.63
-71.03
-77.00
-64.20
-42.30
-23.33
-14.83
-15.78
-17.94
-11.42
8.67
38.23
65.81
78.67
69.69
41.58
5.51
-24.93
-40.70
-41.19
-33.37
-26.48
-26.33
-31.52
-34.66
-27.30
-5.76
26.10
58.38
80.11
85.48
76.64
62.24
51.91
50.64
56.31
61.30
57.54
41.62
17.10
-7.52
-23.68
-27.71
-23.13
-18.56
-23.10
-40.76
-67.57
-93.06
-105.24
-96.78
-68.90
-30.91
4.68
28.14
37.27
37.07
35.37
36.87
39.94
37.51
21.98
-9.03
-49.67
-87.31
-108.52
-105.70
-80.82
-44.55
-10.63
10.97
18.69
19.06
21.80
33.41
52.74
71.91
80.53
72.04
47.89
16.87
-9.64
-23.87
-25.37
-20.64
-18.52
-24.65
-37.89
-50.65
-53.36
-40.23
-12.52
21.39
50.59
66.86
68.70
61.44
53.10
49.32
49.56
47.96
37.11
13.35
-19.77
-52.82
-74.68
-78.80
-66.65
-47.04
-31.34
-27.33
-35.19
-47.54
-53.93
-46.96
-26.26
1.16
25.57
39.81
43.24
41.89
43.81
53.76
69.52
82.78
83.84
67.37
36.14
0.18
-28.25
-40.99
-38.36
-28.57
-23.24
-30.73
-51.37
-77.15
-95.80
-97.72
-80.95
-52.85
-25.76
-10.46
-10.12
-18.66
-24.62
-18.15
2.81
31.26
55.24
64.89
58.12
41.86
27.51
24.23
33.95
50.77
65.31
70.36
65.17
55.11
47.74
47.89
54.52
61.84
62.53
52.71
34.28
14.07
0.21
-2.78
3.54
11.81
13.20
1.83
-21.51
-49.40
-71.48
-79.84
-73.54
-59.20
-47.68
-47.80
-60.90
-79.44
-91.17
-86.40
-64.06
-32.98
-7.13
2.31
-6.28
-24.12
-37.20
-34.78
-15.53
12.08
35.17
44.26
38.68
26.35
18.49
22.85
39.24
60.11
75.30
78.03
68.75
54.50
44.53
44.68
53.93
65.00
68.69
59.05
36.89
9.40
-13.84
-26.15
-27.35
-23.70
-24.31
-35.88
-58.34
-84.47
-103.16
-105.33
-88.69
-59.33
-28.23
-5.62
4.55
6.30
8.34
17.97
35.73
54.60
63.52
54.06
26.04
-11.70
-45.28
-63.11
-61.62
-46.67
-29.66
-20.83
-23.38
-31.66
-34.94
-24.02
2.97
38.69
70.35
86.06
81.15
60.38
34.64
14.54
4.39
0.78
-4.60
-18.47
-40.80
-63.90
-76.09
-68.80
-41.70
-3.25
33.39
57.18
64.35
59.25
50.54
45.27
44.45
42.44
31.40
6.55
-29.58
-66.86
-92.36
-96.46
-78.16
-45.52
-11.59
12.32
22.13
22.14
21.44
27.42
40.61
54.45
58.63
45.80
16.50
-20.54
-52.08
-67.26
-62.82
-44.62
-23.99
-11.18
-9.94
-15.25
-17.04
-6.49
18.37
50.45
77.60
88.94
80.95
59.40
35.31
18.72
12.62
11.84
6.67
-10.67
-40.44
-74.55
-100.26
-107.08
-92.79
-64.20
-34.14
-14.46
-9.74
-15.78
-22.29
-19.57
-4.08
19.56
41.69
53.83
53.17
44.59
37.09
37.87
48.33
62.55
71.26
67.34
50.09
26.13
5.10
-5.54
-5.22
-0.62
-1.51
-15.15
-41.12
-70.91
-92.25
-95.33
-78.63
-49.16
-19.09
1.05
7.83
5.53
3.03
7.83
21.66
40.01
55.10
61.34
58.30
50.69
45.06
44.85
48.24
48.47
37.54
11.06
-28.63
-72.13
-106.72
-121.77
-113.74
-88.14
-56.66
-31.49
-19.26
-17.79
-18.24
-10.77
9.20
37.81
64.65
78.56
74.16
54.80
30.68
12.77
6.54
9.41
12.81
8.49
-5.86
-24.18
-35.06
-28.67
-2.73
35.02
70.35
89.60
86.49
64.72
35.41
10.18
-4.85
-11.86
-18.73
-32.71
-55.29
-79.91
-94.98
-90.56
-63.73
-21.32
23.18
55.75
68.12
60.92
42.02
21.18
4.78
-7.09
-19.08
-35.49
-56.26
-74.97
-81.60
-68.45
-34.97
10.17
52.50
78.20
80.57
62.81
36.00
12.42
-0.78
-4.83
-7.74
-18.11
-39.20
-65.84
-86.40
-89.27
-69.45
-32.02
9.92
41.99
56.06
53.61
44.38
39.62
45.19
58.46
69.99
70.25
55.67
31.09
7.16
-6.15
-5.60
3.42
9.54
2.08
-22.45
-57.92
-90.90
-107.54
-100.93
-74.29
-39.22
-8.98
8.73
15.07
17.73
25.26
40.70
59.70
72.91
71.68
53.60
23.93
-6.99
-29.16
-37.94
-35.63
-29.33
-26.13
-28.69
-33.35
-32.48
-19.55
6.28
38.54
66.09
78.78
72.79
52.42
27.32
6.81
-5.34
-12.16
-20.68
-36.42
-58.81
-80.23
-89.59
-78.20
-45.48
-0.00
43.74
72.11
78.45
65.70
43.66
22.89
8.80
-0.70
-12.57
-33.22
-63.15
-94.96
-116.47
-116.77
-92.02
-48.10
1.95
43.88
68.61
75.53
71.12
63.70
58.09
52.78
41.89
20.20
-11.95
-47.06
-73.23
-80.18
-64.54
-31.69
6.87
39.09
57.51
61.47
55.76
46.23
35.82
23.43
5.61
-19.47
-48.52
-72.80
-81.62
-67.48
-31.19
17.04
61.25
85.75
82.36
53.94
12.88
-24.36
-44.44
-42.77
-23.68
2.94
27.16
43.96
53.81
59.55
62.46
59.42
44.35
13.09
-31.62
-78.80
-111.92
-116.74
-88.93
-37.14
19.85
61.27
73.99
57.95
24.57
-9.57
-31.83
-38.67
-34.72
-28.14
-23.77
-19.89
-10.33
9.76
38.97
67.65
82.12
72.15
37.05
-12.47
-58.19
-82.87
-78.16
-47.79
-5.68
31.75
53.33
56.90
48.33
36.26
25.65
15.34
0.30
-24.02
-56.54
-89.04
-109.76
-108.95
-84.07
-41.86
4.92
43.22
65.05
70.20
64.94
56.97
50.80
45.29
34.64
13.06
-20.16
-58.48
-89.82
-102.12
-89.73
-56.43
-14.08
23.15
45.55
52.16
49.75
47.55
50.82
57.23
58.55
46.28
17.79
-20.50
-55.66
-74.75
-71.49
-49.61
-20.51
3.11
14.07
13.87
10.81
13.96
27.28
46.96
63.78
68.24
56.16
31.22
2.97
-18.51
-28.04
-27.92
-26.19
-31.16
-45.88
-65.62
-79.65
-77.20
-54.00
-15.06
27.21
59.16
73.10
70.52
60.03
51.54
50.13
52.94
52.01
39.35
12.39
-23.49
-57.42
-78.72
-81.97
-69.88
-51.48
-36.69
-30.81
-31.78
-31.43
-20.70
4.04
38.42
71.42
90.92
90.42
72.29
46.01
22.78
9.41
4.86
2.44
-5.25
-20.94
-40.30
-53.88
-52.90
-34.19
-2.65
30.75
54.42
61.32
51.82
32.42
11.59
-5.08
-17.14
-28.35
-43.15
-62.60
-82.41
-94.60
-91.36
-69.79
-34.05
5.97
39.03
57.58
61.08
55.28
48.21
45.14
45.11
41.55
26.38
-4.32
-46.62
-88.97
-117.01
-120.49
-98.16
-58.76
-16.52
15.78
32.92
38.56
41.55
49.01
61.22
71.32
69.74
50.90
18.07
-17.61
-42.78
-49.07
-37.63
-17.86
-1.42
4.71
2.18
-0.38
6.46
26.27
54.26
79.44
90.53
82.13
57.63
