1539435366.00
64.000000
-0.00
-0.00
-0.00
-0.00
-0.00
-0.00
-0.00
-0.00
-0.00
-0.00
0.00
0.01
0.01
-0.00
-0.03
-0.05
-0.05
0.00
0.13
0.36
0.66
1.01
1.37
1.72
2.06
2.40
2.78
3.23
3.79
4.44
5.12
5.79
6.39
6.91
7.39
7.90
8.50
9.32
10.31
11.40
12.46
13.43
14.30
15.21
16.36
17.90
20.11
22.84
25.86
28.85
31.61
34.14
36.67
39.63
43.38
48.43
54.54
61.27
68.03
74.33
80.04
85.47
91.27
98.12
106.81
117.15
128.55
140.08
150.89
160.60
169.46
178.70
187.25
197.87
211.76
229.38
249.47
268.67
281.92
283.96
271.20
243.08
202.66
154.60
103.79
53.54
5.02
-42.20
-89.14
-136.52
-184.46
-232.16
-278.41
-320.98
-356.68
-381.98
-394.11
-392.27
-378.08
-355.20
-327.83
-299.62
-272.79
-248.20
-225.89
-205.64
-187.27
-170.59
-155.18
-140.37
-125.61
-110.71
-96.00
-82.12
-69.83
-59.55
-51.15
-44.04
-37.41
-30.62
-23.41
-16.03
-9.00
-2.90
1.90
5.42
7.98
10.06
12.13
14.42
16.89
19.29
21.29
22.63
23.28
23.38
23.21
23.00
22.91
22.94
22.98
22.91
22.63
22.11
21.37
20.49
19.57
18.73
18.08
17.64
17.39
17.22
17.03
16.74
16.35
15.89
15.38
14.83
14.22
13.60
13.03
12.60
12.34
12.17
11.96
11.59
11.03
10.37
9.73
9.25
8.97
8.85
8.77
8.62
8.32
7.86
7.33
6.81
6.45
6.32
6.41
6.64
6.89
7.04
7.03
6.88
6.64
6.36
6.09
5.87
5.74
5.73
5.79
5.86
5.82
5.63
5.30
4.91
4.55
4.25
3.99
3.76
3.55
3.38
3.29
3.24
3.16
2.97
2.59
2.06
1.48
0.99
0.69
0.58
0.59
0.58
0.47
0.24
-0.06
-0.36
-0.59
-0.78
-0.98
-1.24
-1.56
-1.89
-2.20
-2.45
-2.67
-2.90
-3.15
-3.33
-3.36
-3.13
-2.65
-2.02
-1.42
-1.00
-0.81
-0.79
-0.79
-0.68
-0.39
0.07
0.60
1.09
1.44
1.56
1.45
1.17
0.84
0.56
0.41
0.44
0.59
0.84
1.15
1.56
2.06
2.59
3.01
3.17
2.98
2.54
2.03
1.69
1.65
1.88
2.19
2.40
2.39
2.21
1.97
1.78
1.66
1.55
1.38
1.15
0.97
1.00
1.33
1.95
2.70
3.35
3.73
3.77
3.56
3.23
2.92
2.67
2.45
2.23
2.00
1.82
1.75
1.82
2.02
2.25
2.42
2.47
2.41
2.31
2.25
2.24
2.29
2.34
2.31
2.17
1.91
1.57
1.23
0.97
0.88
0.97
1.17
1.38
1.51
1.50
1.38
1.20
1.03
0.89
0.77
0.66
0.57
0.57
0.69
0.92
1.15
1.29
1.25
1.08
0.86
0.69
0.63
0.67
0.76
0.88
1.03
1.21
1.42
1.59
1.65
1.55
1.33
1.05
0.78
0.52
0.27
0.00
-0.25
-0.39
-0.33
-0.07
0.35
0.80
1.14
1.29
1.26
1.09
0.86
0.65
0.50
0.42
0.43
0.50
0.64
0.81
0.98
1.13
1.22
1.22
1.12
0.95
0.75
0.58
0.48
0.44
0.43
0.41
0.38
0.37
0.38
0.40
0.41
0.38
0.33
0.34
0.47
0.73
1.05
1.28
1.32
1.13
0.82
0.54
0.41
0.47
0.62
0.76
0.79
0.68
0.48
0.25
0.02
-0.21
-0.42
-0.59
-0.62
-0.48
-0.18
0.16
0.36
0.29
-0.04
-0.46
-0.75
-0.71
-0.35
0.17
0.60
0.75
0.61
0.32
0.12
0.18
0.49
0.91
1.22
1.29
1.15
0.92
0.75
0.72
0.77
0.76
0.61
0.33
0.05
-0.07
0.06
0.35
0.64
0.71
0.50
0.08
-0.37
-0.65
-0.67
-0.46
-0.13
0.20
0.44
0.59
0.66
0.67
0.59
0.42
0.16
-0.13
-0.34
-0.36
-0.14
0.28
0.77
1.17
1.35
1.27
0.97
0.56
0.18
-0.10
-0.24
-0.28
-0.26
-0.22
-0.18
-0.15
-0.12
-0.12
-0.15
-0.22
-0.34
-0.47
-0.55
-0.53
-0.37
-0.11
0.19
0.40
0.49
0.47
0.41
0.39
0.43
0.51
0.56
0.56
0.51
0.40
0.25
0.05
-0.18
-0.38
-0.45
-0.34
-0.03
0.38
0.73
0.93
0.95
0.90
0.91
1.05
1.31
1.56
1.68
1.59
1.31
0.93
0.57
0.29
0.11
0.00
-0.08
-0.16
-0.23
-0.29
-0.30
-0.28
-0.23
-0.18
-0.16
-0.21
-0.36
-0.64
-1.02
-1.42
-1.69
-1.71
-1.41
-0.85
-0.16
0.45
0.83
0.93
0.78
0.50
0.21
0.00
-0.13
-0.20
-0.25
-0.27
-0.21
-0.03
0.24
0.52
0.67
0.59
0.28
-0.13
-0.45
-0.52
-0.30
0.08
0.47
0.69
0.71
0.58
0.39
0.21
0.08
-0.01
-0.06
-0.07
-0.04
0.01
0.02
-0.02
-0.10
-0.15
-0.14
-0.03
0.13
0.28
0.36
0.37
0.32
0.26
0.20
0.15
0.08
-0.01
-0.08
-0.09
-0.02
0.13
0.33
0.55
0.74
0.86
0.88
0.77
0.56
0.29
0.05
-0.09
-0.10
-0.02
0.06
0.06
-0.05
-0.25
-0.45
-0.62
-0.71
-0.75
-0.75
-0.71
-0.59
-0.35
-0.04
0.29
0.53
0.60
0.50
0.29
0.09
-0.01
0.03
0.19
0.38
0.53
0.56
0.47
0.33
0.23
0.24
0.32
0.42
0.44
0.34
0.18
0.02
-0.06
-0.07
-0.03
0.02
0.08
0.19
0.37
0.54
0.61
0.47
0.13
-0.30
-0.63
-0.73
-0.60
-0.35
-0.10
0.08
0.21
0.35
0.54
0.73
0.81
0.71
0.45
0.14
-0.07
-0.07
0.12
0.39
0.60
0.66
0.55
0.35
0.14
-0.02
-0.13
-0.23
-0.35
-0.48
-0.61
-0.68
-0.66
-0.51
-0.25
0.03
0.23
0.26
0.08
-0.21
-0.48
-0.61
-0.55
-0.35
-0.15
-0.09
-0.22
-0.50
-0.81
-1.00
-1.03
-0.95
-0.87
-0.87
-1.00
-1.19
-1.29
-1.18
-0.79
-0.21
0.43
0.93
1.18
1.20
1.06
0.88
0.76
0.72
0.74
0.77
0.77
0.72
0.63
0.53
0.45
0.41
0.41
0.40
0.33
0.18
-0.04
-0.27
-0.42
-0.42
-0.25
0.04
0.37
0.65
0.80
0.78
0.61
0.32
-0.00
-0.25
-0.33
-0.22
0.03
0.31
0.52
0.57
0.48
0.28
0.05
-0.15
-0.30
-0.39
-0.44
-0.44
-0.38
-0.27
-0.14
0.02
0.18
0.29
0.35
0.30
0.12
-0.17
-0.52
-0.84
-1.05
-1.12
-1.05
-0.88
-0.68
-0.47
-0.24
0.00
0.27
0.53
0.73
0.81
0.74
0.52
0.22
-0.06
-0.22
-0.23
-0.10
0.06
0.15
0.10
-0.06
-0.24
-0.32
-0.27
-0.14
-0.02
0.01
-0.03
-0.07
-0.01
0.19
0.50
0.80
1.00
1.03
0.91
0.68
0.43
0.23
0.13
0.15
0.23
0.29
0.24
0.07
-0.14
-0.29
-0.27
-0.10
0.14
0.30
0.27
0.04
-0.32
-0.66
-0.86
-0.87
-0.71
-0.46
-0.23
-0.09
-0.07
-0.13
-0.18
-0.20
-0.14
-0.06
0.02
0.08
0.15
0.27
0.43
0.60
0.70
0.67
0.48
0.19
-0.12
-0.35
-0.43
-0.40
-0.28
-0.15
-0.07
-0.05
-0.06
-0.06
-0.02
0.07
0.13
0.11
-0.05
-0.33
-0.64
-0.84
-0.82
-0.58
-0.16
0.30
0.64
0.77
0.65
0.33
-0.07
-0.44
-0.68
-0.72
-0.55
-0.24
0.10
0.38
0.55
0.66
0.75
0.89
1.04
1.14
1.09
0.85
0.47
0.05
-0.29
-0.49
-0.56
-0.52
-0.43
-0.28
-0.09
0.15
0.39
0.59
0.65
0.50
0.12
-0.43
-0.98
-1.35
-1.39
-1.06
-0.47
0.16
0.62
0.78
0.65
0.36
0.06
-0.10
-0.08
0.08
0.27
0.38
0.32
0.07
-0.32
-0.73
-1.02
-1.13
-1.04
-0.79
-0.47
-0.12
0.18
0.42
0.55
0.56
0.46
0.30
0.14
0.03
-0.02
-0.06
-0.11
-0.20
-0.29
-0.33
-0.23
0.00
0.32
0.62
0.82
0.87
0.76
0.53
0.26
0.01
-0.19
-0.30
-0.31
-0.26
-0.14
0.02
0.17
0.28
0.31
0.25
0.13
-0.01
-0.09
-0.10
-0.07
-0.06
-0.11
-0.21
-0.28
-0.25
-0.07
0.18
0.40
0.48
0.37
0.15
-0.08
-0.19
-0.19
-0.13
-0.08
-0.12
-0.24
-0.37
-0.46
-0.45
-0.36
-0.20
0.00
0.20
0.38
0.53
0.61
0.63
0.58
0.46
0.30
0.16
0.07
0.06
0.09
0.09
-0.00
-0.20
-0.46
-0.70
-0.79
-0.69
-0.40
0.01
0.44
0.79
0.99
1.01
0.88
0.67
0.49
0.38
0.38
0.39
0.31
0.05
-0.38
-0.89
-1.33
-1.58
-1.57
-1.31
-0.87
-0.35
0.12
0.43
0.53
0.43
0.20
-0.05
-0.24
-0.35
-0.44
-0.57
-0.74
-0.89
-0.91
-0.74
-0.44
-0.09
0.19
0.33
0.34
0.25
0.13
-0.04
-0.24
-0.46
-0.62
-0.67
-0.58
-0.36
-0.10
0.12
0.26
0.33
0.40
0.51
0.64
0.71
0.67
0.51
0.34
0.27
0.40
0.70
1.02
1.21
1.16
0.89
0.53
0.24
0.09
0.09
0.14
0.16
0.15
0.12
0.11
0.12
0.10
0.02
-0.11
-0.23
-0.24
-0.09
0.18
0.46
0.60
0.51
0.21
-0.20
-0.58
-0.82
-0.86
-0.73
-0.49
-0.17
0.18
0.51
0.76
0.86
0.75
0.46
0.07
-0.24
-0.37
-0.27
0.01
0.33
0.55
0.59
0.42
0.12
-0.22
-0.47
-0.60
-0.61
-0.58
-0.58
-0.65
-0.73
-0.76
-0.66
-0.42
-0.12
0.10
0.17
0.07
-0.10
-0.21
-0.19
-0.02
0.20
0.36
0.41
0.36
0.29
0.24
0.23
0.19
0.07
-0.14
-0.36
-0.50
-0.47
-0.29
-0.03
0.19
0.29
0.28
0.20
0.13
0.08
0.04
-0.00
-0.06
-0.11
-0.16
-0.20
-0.22
-0.21
-0.14
0.02
0.24
0.45
0.54
0.46
0.21
-0.12
-0.42
-0.60
-0.63
-0.57
-0.45
-0.32
-0.18
-0.02
0.19
0.42
0.62
0.70
0.62
0.37
0.01
-0.31
-0.48
-0.42
-0.19
0.13
0.39
0.53
0.54
0.47
0.36
0.24
0.09
-0.10
-0.32
-0.53
-0.65
-0.66
-0.53
-0.27
0.07
0.44
0.74
0.89
0.83
0.57
0.23
-0.01
-0.05
0.09
0.30
0.40
0.30
0.05
-0.21
-0.35
-0.33
-0.22
-0.19
-0.30
-0.55
-0.82
-0.95
-0.89
-0.65
-0.37
-0.18
-0.15
-0.25
-0.40
-0.48
-0.40
-0.20
0.03
0.15
0.07
-0.20
-0.53
-0.76
-0.75
-0.48
-0.06
0.37
0.65
0.76
0.74
0.69
0.67
0.69
0.67
0.54
0.29
-0.02
-0.27
-0.35
-0.23
0.01
0.22
0.27
0.10
-0.18
-0.41
-0.45
-0.26
0.09
0.43
0.61
0.55
0.28
-0.09
-0.42
-0.62
-0.66
-0.58
-0.42
-0.21
0.02
0.23
0.39
0.48
0.48
0.41
0.28
0.17
0.11
0.12
0.21
0.33
0.45
0.53
0.51
0.39
0.18
-0.07
-0.27
-0.34
-0.24
-0.01
0.28
0.53
0.70
0.77
0.74
0.65
0.50
0.32
0.13
-0.07
-0.30
-0.53
-0.76
-0.94
-1.00
-0.91
-0.68
-0.35
-0.03
0.19
0.27
0.22
0.08
-0.08
-0.22
-0.33
-0.41
-0.46
-0.47
-0.46
-0.45
-0.47
-0.51
-0.51
-0.41
-0.15
0.27
0.76
1.16
1.36
1.26
0.90
0.37
-0.18
-0.64
-0.94
-1.08
-1.09
-0.99
-0.80
-0.55
-0.24
0.09
0.41
0.66
0.81
0.86
0.82
0.74
0.64
0.53
0.41
0.26
0.10
-0.06
-0.19
-0.25
-0.20
-0.05
0.17
0.36
0.43
0.34
0.08
-0.27
-0.59
-0.73
-0.61
-0.26
0.22
0.66
0.94
1.00
0.90
0.75
0.63
0.61
0.63
0.61
0.50
0.27
-0.04
-0.36
-0.65
-0.88
-1.07
-1.19
-1.22
-1.12
-0.90
-0.63
-0.40
-0.28
-0.28
-0.31
-0.28
-0.09
0.25
0.66
0.96
1.03
0.82
0.39
-0.12
-0.58
-0.89
-1.05
-1.08
-1.00
-0.84
-0.59
-0.25
0.11
0.40
0.51
0.41
0.16
-0.15
-0.41
-0.55
-0.58
-0.50
-0.32
-0.02
0.39
0.86
1.25
1.44
1.38
1.09
0.76
0.50
0.40
0.42
0.42
0.29
0.01
-0.36
-0.68
-0.85
-0.83
-0.68
-0.50
-0.38
-0.34
-0.35
-0.35
-0.28
-0.12
0.08
0.26
0.34
0.29
0.15
-0.01
-0.11
-0.12
-0.07
-0.03
-0.04
-0.10
-0.19
-0.21
-0.10
0.13
0.41
0.66
0.80
0.81
0.69
0.49
0.24
-0.02
-0.24
-0.36
-0.34
-0.18
0.04
0.22
0.24
0.09
-0.17
-0.44
-0.61
-0.64
-0.52
-0.31
-0.06
0.17
0.36
0.46
0.48
0.39
0.24
0.07
-0.04
-0.07
0.00
0.13
0.27
0.35
0.35
0.25
0.07
-0.15
-0.32
-0.38
-0.33
-0.16
0.06
0.26
0.39
0.44
0.43
0.38
0.32
0.21
0.04
-0.18
-0.37
-0.46
-0.39
-0.21
-0.02
0.06
-0.02
-0.24
-0.51
-0.69
-0.71
-0.56
-0.31
-0.05
0.12
0.18
0.16
0.11
0.13
0.26
0.49
0.75
0.92
0.86
0.54
0.02
-0.53
-0.92
-1.01
-0.77
-0.35
0.07
0.33
0.39
0.33
0.25
0.26
0.33
0.39
0.34
0.13
-0.21
-0.60
-0.93
-1.14
-1.19
-1.11
-0.88
-0.54
-0.11
0.33
0.70
0.91
0.93
0.76
0.49
0.21
-0.01
-0.12
-0.14
-0.11
-0.08
-0.07
-0.07
-0.07
-0.04
0.02
0.08
0.13
0.15
0.19
0.27
0.41
0.58
0.71
0.74
0.68
0.56
0.46
0.40
0.36
0.30
0.15
-0.11
-0.42
-0.73
-0.96
-1.08
-1.07
-0.93
-0.70
-0.39
-0.08
0.16
0.25
0.20
0.07
-0.05
-0.06
0.03
0.16
0.25
0.26
0.20
0.15
0.17
0.24
0.29
0.24
0.05
-0.25
-0.54
-0.68
-0.62
-0.36
-0.01
0.30
0.52
0.63
0.67
0.71
0.75
0.78
0.76
0.65
0.43
0.08
-0.36
-0.84
-1.28
-1.55
-1.58
-1.35
-0.94
-0.47
-0.09
0.12
0.16
0.12
0.07
0.07
0.09
0.06
-0.06
-0.27
-0.49
-0.61
-0.53
-0.26
0.12
0.46
0.68
0.73
0.66
0.54
0.43
0.36
0.31
0.29
0.33
0.47
0.71
1.00
1.21
1.26
1.10
0.78
0.37
-0.02
-0.32
-0.51
-0.59
-0.58
-0.50
-0.37
-0.22
-0.07
0.03
0.07
0.04
-0.01
-0.06
-0.07
-0.03
0.03
0.06
-0.01
-0.21
-0.53
-0.88
-1.13
-1.18
-0.97
-0.53
0.05
0.61
1.01
1.19
1.13
0.88
0.55
0.20
-0.11
-0.35
-0.52
-0.63
-0.72
-0.80
-0.89
-0.97
-1.00
-0.94
-0.77
-0.53
-0.29
-0.13
-0.08
-0.09
-0.11
-0.07
0.07
0.26
0.46
0.59
0.62
0.53
0.37
0.20
0.06
0.03
0.08
0.18
0.24
0.22
0.10
-0.04
-0.10
0.00
0.28
0.68
1.10
1.45
1.64
1.59
1.27
0.70
-0.02
-0.73
-1.23
-1.36
-1.08
-0.51
0.13
0.60
0.71
0.45
-0.04
-0.55
-0.86
-0.87
-0.60
-0.20
0.19
0.47
0.63
0.68
0.66
0.55
0.30
-0.09
-0.57
-0.99
-1.21
-1.13
-0.78
-0.28
0.20
0.52
0.66
0.64
0.54
0.39
0.21
-0.01
-0.25
-0.43
-0.47
-0.35
-0.13
0.07
0.11
-0.09
-0.44
-0.81
-1.00
-0.92
-0.59
-0.13
0.29
0.55
0.58
0.43
0.19
-0.09
-0.33
-0.49
-0.51
-0.39
-0.12
0.22
0.56
0.81
0.91
0.83
0.61
0.29
-0.08
-0.43
-0.68
-0.78
-0.68
-0.42
-0.10
0.14
0.22
0.13
-0.02
-0.11
-0.04
0.21
0.57
0.91
1.08
1.03
0.77
0.39
0.03
-0.17
-0.17
0.02
0.29
0.53
0.66
0.65
0.52
0.32
0.09
-0.17
-0.45
-0.73
-0.95
-1.06
-1.03
-0.90
-0.73
-0.56
-0.42
-0.26
-0.04
0.26
0.60
0.87
0.99
0.90
0.60
0.16
-0.32
-0.69
-0.87
-0.81
-0.55
-0.19
0.10
0.22
0.11
-0.14
-0.44
-0.66
-0.75
-0.71
-0.59
-0.44
-0.27
-0.06
0.18
0.48
0.76
0.99
1.11
1.10
0.98
0.83
0.72
0.67
0.67
0.63
0.49
0.23
-0.13
-0.45
-0.67
-0.73
-0.64
-0.46
-0.26
-0.07
0.06
0.11
0.07
-0.07
-0.26
-0.46
-0.61
-0.67
-0.64
-0.57
-0.48
-0.36
-0.21
-0.03
0.13
0.19
0.12
-0.04
-0.19
-0.21
-0.02
0.33
0.75
1.05
1.11
0.90
0.46
-0.03
-0.44
-0.64
-0.61
-0.40
-0.14
0.03
0.03
-0.14
-0.39
-0.54
-0.47
-0.15
0.33
0.76
0.95
0.82
0.43
-0.04
-0.39
-0.51
-0.42
-0.26
-0.16
-0.19
-0.30
-0.41
-0.43
-0.35
-0.21
-0.10
-0.07
-0.11
-0.16
-0.10
0.13
0.53
0.98
1.34
1.46
1.28
0.89
0.44
0.10
-0.03
0.01
0.12
0.14
0.01
-0.24
-0.48
-0.58
-0.47
-0.19
0.14
0.38
0.41
0.21
-0.16
-0.57
-0.91
-1.10
-1.11
-0.97
-0.72
-0.43
-0.17
-0.01
0.02
-0.09
-0.26
-0.40
-0.46
-0.41
-0.30
-0.16
-0.02
0.13
0.34
0.58
0.79
0.91
0.87
0.66
0.37
0.10
-0.09
-0.16
-0.16
-0.12
-0.07
-0.02
0.06
0.16
0.29
0.43
0.58
0.71
0.80
0.77
0.60
0.28
-0.11
-0.44
-0.62
-0.58
-0.35
-0.04
0.27
0.48
0.57
0.54
0.43
0.24
-0.00
-0.29
-0.58
-0.80
-0.89
-0.86
-0.73
-0.54
-0.33
-0.09
0.15
0.35
0.45
0.38
0.13
-0.24
-0.60
-0.83
-0.83
-0.63
-0.30
0.03
0.29
0.41
0.39
0.27
0.08
-0.11
-0.22
-0.18
0.05
0.40
0.76
1.00
1.04
0.89
0.62
0.35
0.14
-0.03
-0.18
-0.30
-0.39
-0.38
-0.26
-0.06
0.14
0.26
0.29
0.26
0.22
0.20
0.15
0.05
-0.11
-0.29
-0.43
-0.47
-0.42
-0.31
-0.19
-0.07
0.04
0.12
0.13
0.04
-0.13
-0.32
-0.42
-0.38
-0.22
-0.05
0.04
-0.00
-0.14
-0.34
-0.52
-0.66
-0.73
-0.70
-0.53
-0.25
0.07
0.30
0.35
0.24
0.10
0.08
0.23
0.49
0.71
0.77
0.65
0.44
0.29
0.28
0.38
0.47
0.45
0.30
0.10
-0.02
0.00
0.14
0.29
0.31
0.16
-0.12
-0.40
-0.56
-0.56
-0.44
-0.31
-0.28
-0.38
-0.57
-0.76
-0.85
-0.80
-0.63
-0.45
-0.32
-0.28
-0.28
-0.24
-0.07
0.25
0.67
1.04
1.26
1.25
1.06
0.78
0.53
0.37
0.32
0.33
0.34
0.29
0.19
0.04
-0.13
-0.26
-0.33
-0.34
-0.32
-0.30
-0.30
-0.28
-0.22
-0.12
0.01
0.07
-0.01
-0.26
-0.60
-0.90
-1.01
-0.87
-0.52
-0.10
0.25
0.43
0.43
0.34
0.24
0.17
0.13
0.07
-0.05
-0.18
-0.24
-0.16
0.07
0.38
0.66
0.83
0.86
0.75
0.52
0.20
-0.16
-0.50
-0.71
-0.73
-0.58
-0.34
-0.10
0.03
0.06
0.05
0.07
0.11
0.12
0.01
-0.23
-0.55
-0.83
-0.94
-0.88
-0.70
-0.50
-0.33
-0.17
0.07
0.41
0.80
1.11
1.22
1.06
0.71
0.34
0.08
-0.00
0.05
0.14
0.18
0.16
0.12
0.10
0.12
0.18
0.24
0.26
0.22
0.14
0.06
0.05
0.16
0.40
0.70
0.97
1.07
0.93
0.59
0.13
-0.32
-0.66
-0.85
-0.90
-0.86
-0.73
-0.53
-0.25
0.06
0.33
0.50
0.50
0.33
0.04
-0.25
-0.44
-0.44
-0.27
-0.00
0.24
0.34
0.27
0.09
-0.09
-0.21
-0.26
-0.30
-0.39
-0.56
-0.78
-0.99
-1.13
-1.18
-1.18
-1.15
-1.09
-0.99
-0.83
-0.60
-0.35
-0.10
0.12
0.31
0.51
0.69
0.85
0.96
1.02
1.04
1.03
1.01
0.99
0.95
0.86
0.70
0.43
0.05
-0.37
-0.71
-0.79
-0.51
0.10
0.88
1.55
1.87
1.72
1.18
0.48
-0.15
-0.54
-0.69
-0.66
-0.56
-0.47
-0.41
-0.40
-0.45
-0.61
-0.87
-1.17
-1.35
-1.27
-0.86
-0.23
0.42
0.86
0.96
0.74
0.34
-0.05
-0.33
-0.44
-0.43
-0.32
-0.15
0.08
0.30
0.44
0.43
0.26
-0.02
-0.31
-0.51
-0.55
-0.40
-0.10
0.30
0.73
1.11
1.37
1.48
1.41
1.19
0.85
0.42
-0.05
-0.52
-0.93
-1.17
-1.11
-0.69
0.00
0.74
1.24
1.31
0.94
0.29
-0.35
-0.77
-0.92
-0.94
-0.99
-1.18
-1.43
-1.56
-1.36
-0.80
-0.02
0.73
1.20
1.26
0.93
0.40
-0.10
-0.38
-0.35
-0.10
0.20
0.34
0.24
-0.06
-0.40
-0.61
-0.60
-0.44
-0.25
-0.15
-0.13
-0.10
0.05
0.35
0.68
0.85
0.75
0.40
-0.04
-0.34
-0.38
-0.20
0.02
0.05
-0.20
-0.64
-1.06
-1.20
-0.94
-0.34
0.37
0.93
1.16
1.07
0.78
0.50
0.33
0.29
0.28
0.21
0.06
-0.15
-0.34
-0.46
-0.50
-0.49
-0.47
-0.47
-0.50
-0.51
-0.47
-0.34
-0.11
0.17
0.41
0.52
0.45
0.24
-0.02
-0.18
-0.15
0.05
0.31
0.47
0.42
0.20
-0.09
-0.28
-0.31
-0.22
-0.13
-0.15
-0.29
-0.43
-0.41
-0.14
0.37
0.96
1.40
1.52
1.28
0.75
0.07
-0.56
-1.02
-1.23
-1.18
-0.90
-0.49
-0.05
0.31
0.51
0.55
0.45
0.27
0.06
-0.11
-0.20
-0.17
-0.03
0.19
0.40
0.51
0.47
0.30
0.10
-0.04
-0.05
0.04
0.15
0.19
0.13
-0.01
-0.14
-0.22
-0.21
-0.16
-0.10
-0.05
-0.02
-0.01
-0.03
-0.11
-0.29
-0.56
-0.85
-1.04
-1.01
-0.73
-0.25
0.26
0.64
0.79
0.73
0.53
0.29
0.03
-0.25
-0.57
-0.88
-1.08
-1.07
-0.79
-0.30
0.30
0.83
1.17
1.24
1.04
0.64
0.14
-0.32
-0.59
-0.61
-0.38
0.01
0.41
0.70
0.80
0.71
0.47
0.16
-0.13
-0.32
-0.35
-0.18
0.16
0.61
1.04
1.33
1.37
1.15
0.68
0.09
-0.49
-0.91
-1.08
-0.97
-0.64
-0.18
0.24
0.52
0.59
0.49
0.30
0.09
-0.08
-0.20
-0.27
-0.30
-0.31
-0.29
-0.30
-0.38
-0.60
-0.92
-1.25
-1.44
-1.35
-0.94
-0.30
0.39
0.96
1.27
1.29
1.07
0.70
0.29
-0.06
-0.31
-0.42
-0.40
-0.24
0.03
0.38
0.71
0.92
0.93
0.73
0.37
-0.03
-0.33
-0.41
-0.24
0.09
0.46
0.74
0.83
0.73
0.49
0.14
-0.25
-0.68
-1.10
-1.43
-1.61
-1.58
-1.33
-0.96
-0.60
-0.38
-0.34
-0.42
-0.49
-0.42
-0.17
0.18
0.50
0.62
0.49
0.16
-0.25
-0.54
-0.61
-0.42
-0.05
0.35
0.67
0.81
0.77
0.61
0.40
0.18
-0.00
-0.14
-0.22
-0.22
-0.14
0.02
0.21
0.42
0.61
0.76
0.85
0.85
0.73
0.47
0.09
-0.32
-0.65
-0.82
-0.80
-0.62
-0.36
-0.15
-0.05
-0.09
-0.24
-0.43
-0.54
-0.53
-0.33
0.02
0.42
0.76
0.94
0.91
0.71
0.40
0.06
-0.25
-0.48
-0.61
-0.63
-0.55
-0.39
-0.20
-0.02
0.12
0.21
0.28
0.37
0.50
0.64
0.71
0.62
0.36
-0.02
-0.38
-0.59
-0.55
-0.28
0.10
0.46
0.70
0.78
0.70
0.49
0.19
-0.13
-0.42
-0.58
-0.56
-0.37
-0.11
0.12
0.23
0.22
0.13
0.05
-0.02
-0.07
-0.17
-0.32
-0.46
-0.54
-0.52
-0.42
-0.31
-0.25
-0.23
-0.21
-0.15
-0.01
0.15
0.26
0.27
0.16
0.01
-0.09
-0.08
0.07
0.34
0.64
0.91
1.06
1.06
0.92
0.67
0.41
0.20
0.13
0.19
0.31
0.42
0.43
0.34
0.19
0.01
-0.16
-0.34
-0.55
-0.77
-0.92
-0.91
-0.68
-0.26
0.19
0.49
0.51
0.23
-0.24
-0.72
-1.04
-1.11
-0.94
-0.61
-0.22
0.12
0.37
0.51
0.53
0.47
0.33
0.15
-0.02
-0.13
-0.13
-0.01
0.18
0.37
0.45
0.37
0.13
-0.20
-0.55
-0.84
-1.01
-1.02
-0.87
-0.60
-0.27
0.04
0.26
0.39
0.45
0.49
0.53
0.53
0.45
0.28
0.05
-0.14
-0.23
-0.21
-0.15
-0.13
-0.21
-0.34
-0.45
-0.46
-0.37
-0.24
-0.15
-0.15
-0.22
-0.32
-0.42
-0.49
-0.54
-0.55
-0.48
-0.30
-0.01
0.36
0.76
1.10
1.34
1.40
1.26
0.91
0.40
-0.15
-0.56
-0.69
-0.48
-0.04
0.46
0.82
0.91
0.74
0.40
0.00
-0.33
-0.52
-0.53
-0.35
0.01
0.50
1.00
1.38
1.51
1.35
0.96
0.47
0.00
-0.33
-0.52
-0.59
-0.63
-0.69
-0.81
-0.98
-1.17
-1.33
-1.40
-1.34
-1.15
-0.83
-0.43
-0.04
0.28
0.47
0.51
0.42
0.28
0.16
0.17
0.32
0.58
0.84
0.95
0.82
0.44
-0.10
-0.60
-0.93
-1.01
-0.86
-0.59
-0.28
-0.02
0.19
0.32
0.37
0.33
0.20
0.05
-0.07
-0.12
-0.08
0.02
0.16
0.28
0.40
0.51
0.62
0.70
0.72
0.64
0.43
0.14
-0.15
-0.35
-0.41
-0.30
-0.08
0.15
0.28
0.24
0.07
-0.18
-0.41
-0.54
-0.54
-0.44
-0.27
-0.05
0.14
0.28
0.31
0.22
0.03
-0.22
-0.45
-0.59
-0.59
-0.44
-0.16
0.21
0.60
0.91
1.07
1.04
0.81
0.45
0.01
-0.39
-0.69
-0.84
-0.80
-0.60
-0.26
0.11
0.43
0.61
0.61
0.43
0.11
-0.25
-0.57
-0.78
-0.83
-0.72
-0.49
-0.22
0.02
0.16
0.17
0.09
-0.02
-0.11
-0.16
-0.16
-0.13
-0.08
0.02
0.18
0.40
0.64
0.83
0.90
0.82
0.63
0.39
0.20
0.10
0.08
0.06
-0.01
-0.17
-0.39
-0.61
-0.77
-0.83
-0.80
-0.73
-0.65
-0.59
-0.53
-0.43
-0.30
-0.19
-0.14
-0.20
-0.32
-0.43
-0.41
-0.19
0.19
0.65
1.06
1.33
1.42
1.34
1.13
0.84
0.54
0.28
0.08
-0.03
-0.07
-0.09
-0.13
-0.21
-0.30
-0.36
-0.33
-0.17
0.09
0.35
0.52
0.50
0.28
-0.06
-0.38
-0.56
-0.52
-0.29
0.02
0.28
0.39
0.33
0.15
-0.08
-0.30
-0.47
-0.59
-0.66
-0.68
-0.64
-0.55
-0.41
-0.26
-0.14
-0.05
0.02
0.07
0.08
0.02
-0.11
-0.29
-0.45
-0.50
-0.39
-0.17
0.05
0.15
0.07
-0.15
-0.39
-0.51
-0.47
-0.29
-0.06
0.11
0.17
0.12
0.02
-0.09
-0.14
-0.06
0.16
0.51
0.90
1.22
1.39
1.38
1.22
0.99
0.71
0.43
0.13
-0.16
-0.37
-0.46
-0.41
-0.28
-0.15
-0.08
-0.04
0.04
0.24
0.53
0.82
0.99
0.95
0.74
0.47
0.27
0.24
0.36
0.55
0.71
0.77
0.70
0.51
0.25
-0.05
-0.34
-0.62
-0.87
-1.08
-1.20
-1.22
-1.12
-0.92
-0.64
-0.36
-0.12
0.02
0.04
-0.05
-0.20
-0.35
-0.46
-0.48
-0.43
-0.34
-0.26
-0.25
-0.32
-0.45
-0.57
-0.64
-0.64
-0.57
-0.48
-0.37
-0.22
0.00
0.29
0.62
0.89
1.02
0.99
0.81
0.57
0.35
0.22
0.20
0.26
0.36
0.45
0.51
0.54
0.51
0.44
0.33
0.20
0.08
0.00
-0.03
-0.05
-0.08
-0.21
-0.46
-0.82
-1.21
-1.48
-1.51
-1.24
-0.76
-0.20
0.24
0.46
0.45
0.32
0.22
0.25
0.38
0.54
0.61
0.51
0.33
0.17
0.19
0.41
0.75
1.03
1.09
0.88
0.47
0.01
-0.36
-0.57
-0.66
-0.71
-0.77
-0.80
-0.74
-0.52
-0.16
0.21
0.42
0.35
-0.00
-0.50
-0.91
-1.07
-0.90
-0.47
0.03
0.40
0.53
0.39
0.09
-0.24
-0.50
-0.61
-0.56
-0.38
-0.13
0.12
0.34
0.50
0.59
0.62
0.59
0.50
0.37
0.21
0.06
-0.01
0.02
0.15
0.32
0.46
0.51
0.46
0.38
0.31
0.28
0.24
0.12
-0.08
-0.32
-0.51
-0.55
-0.46
-0.29
-0.16
-0.16
-0.27
-0.41
-0.49
-0.44
-0.30
-0.14
-0.05
-0.09
-0.21
-0.33
-0.34
-0.20
0.07
0.36
0.56
0.59
0.45
0.22
-0.00
-0.13
-0.13
-0.07
-0.02
-0.01
-0.06
-0.10
-0.10
-0.03
0.07
0.14
0.12
0.02
-0.11
-0.17
-0.09
0.11
0.33
0.46
0.41
0.23
0.06
0.05
0.26
0.60
0.90
0.99
0.81
0.45
0.10
-0.11
-0.14
-0.05
0.01
-0.06
-0.25
-0.50
-0.70
-0.80
-0.83
-0.82
-0.79
-0.72
-0.57
-0.34
-0.06
0.20
0.38
0.43
0.36
0.19
-0.02
-0.21
-0.31
-0.27
-0.08
0.22
0.55
0.78
0.88
0.83
0.70
0.56
0.44
0.34
0.23
0.08
-0.07
-0.21
-0.31
-0.39
-0.48
-0.57
-0.65
-0.65
-0.54
-0.36
-0.18
-0.08
-0.10
-0.19
-0.28
-0.30
-0.23
-0.12
-0.03
0.02
0.00
-0.03
-0.05
-0.06
-0.05
-0.06
-0.07
-0.08
-0.09
-0.09
-0.12
-0.18
-0.27
-0.37
-0.45
-0.48
-0.46
-0.39
-0.29
-0.16
0.02
0.25
0.54
0.85
1.09
1.18
1.08
0.81
0.46
0.16
-0.04
-0.11
-0.09
-0.03
0.02
0.05
0.04
0.00
-0.08
-0.20
-0.33
-0.43
-0.46
-0.41
-0.28
-0.12
0.02
0.11
0.15
0.17
0.22
0.32
0.48
0.62
0.69
0.61
0.38
0.08
-0.19
-0.30
-0.22
0.02
0.33
0.59
0.72
0.70
0.56
0.35
0.12
-0.10
-0.29
-0.39
-0.39
-0.29
-0.12
0.01
0.04
-0.08
-0.31
-0.56
-0.73
-0.78
-0.70
-0.54
-0.37
-0.21
-0.11
-0.06
-0.06
-0.10
-0.15
-0.17
-0.12
-0.03
0.10
0.24
0.37
0.49
0.60
0.65
0.60
0.43
0.17
-0.04
-0.11
0.01
0.30
0.61
0.79
0.73
0.44
-0.01
-0.49
-0.88
-1.14
-1.25
-1.21
-1.06
-0.81
-0.50
-0.17
0.14
0.36
0.44
0.36
0.16
-0.09
-0.26
-0.26
-0.10
0.19
0.49
0.69
0.74
0.64
0.42
0.15
-0.14
-0.42
-0.65
-0.81
-0.85
-0.77
-0.58
-0.30
-0.03
0.19
0.30
0.32
0.28
0.24
0.24
0.31
0.46
0.66
0.90
1.14
1.30
1.30
1.07
0.61
0.02
-0.51
-0.80
-0.77
-0.47
-0.05
0.31
0.50
0.54
0.47
0.36
0.24
0.09
-0.15
-0.47
-0.78
-1.01
-1.06
-0.90
-0.58
-0.17
0.23
0.56
0.79
0.89
0.87
0.75
0.55
0.31
0.07
-0.11
-0.20
-0.18
-0.06
0.13
0.33
0.45
0.44
0.26
-0.05
-0.43
-0.79
-1.03
-1.11
-1.04
-0.84
-0.61
-0.43
-0.37
-0.46
-0.65
-0.85
-0.97
-0.93
-0.75
-0.49
-0.22
-0.00
0.13
0.18
0.18
0.15
0.10
0.04
-0.00
0.04
0.18
0.43
0.72
0.95
1.04
0.93
0.67
0.32
-0.01
-0.26
-0.39
-0.38
-0.23
0.02
0.32
0.61
0.82
0.89
0.84
0.70
0.52
0.32
0.12
-0.08
-0.25
-0.34
-0.32
-0.21
-0.08
0.01
0.03
0.02
0.04
0.12
0.25
0.34
0.36
0.27
0.10
-0.10
-0.32
-0.55
-0.78
-0.98
-1.07
-1.04
-0.89
-0.71
-0.56
-0.48
-0.42
-0.31
-0.11
0.15
0.36
0.44
0.37
0.20
0.01
-0.14
-0.25
-0.32
-0.35
-0.30
-0.13
0.17
0.52
0.81
0.95
0.87
0.65
0.41
0.28
0.34
0.58
0.91
1.19
1.29
1.16
0.80
0.27
-0.30
-0.77
-1.02
-1.01
-0.72
-0.27
0.19
0.45
0.39
-0.02
-0.64
-1.24
-1.59
-1.57
-1.23
-0.75
-0.34
-0.13
-0.10
-0.14
-0.13
-0.03
0.11
0.24
0.32
0.39
0.50
0.69
0.92
1.06
1.01
0.73
0.28
-0.16
-0.45
-0.50
-0.32
-0.03
0.24
0.42
0.47
0.43
0.37
0.32
0.30
0.31
0.30
0.25
0.14
-0.04
-0.28
-0.53
-0.73
-0.82
-0.77
-0.62
-0.41
-0.19
-0.02
0.10
0.17
0.18
0.13
0.03
-0.06
-0.11
-0.07
0.04
0.21
0.37
0.51
0.58
0.54
0.37
0.07
-0.34
-0.76
-1.08
-1.22
-1.14
-0.89
-0.54
-0.19
0.10
0.25
0.25
0.13
-0.01
-0.04
0.12
0.49
0.96
1.34
1.46
1.26
0.81
0.28
-0.14
-0.34
-0.33
-0.18
-0.02
0.08
0.11
0.09
0.06
0.01
-0.05
-0.11
-0.16
-0.18
-0.16
-0.14
-0.17
-0.26
-0.39
-0.49
-0.50
-0.42
-0.30
-0.23
-0.27
-0.36
-0.42
-0.32
-0.02
0.39
0.77
0.95
0.88
0.62
0.31
0.06
-0.09
-0.20
-0.39
-0.67
-0.98
-1.19
-1.16
-0.85
-0.36
0.17
0.55
0.70
0.64
0.45
0.25
0.12
0.08
0.08
0.07
0.03
-0.05
-0.09
-0.03
0.19
0.50
0.82
1.00
0.96
0.71
0.32
-0.10
-0.45
-0.68
-0.78
-0.72
-0.51
-0.18
0.20
0.54
0.76
0.80
0.68
0.47
0.23
0.05
-0.03
-0.00
0.14
0.37
0.61
0.78
0.77
0.54
0.13
-0.33
-0.70
-0.84
-0.76
-0.51
-0.21
0.04
0.19
0.21
0.16
0.05
-0.08
-0.24
-0.40
-0.52
-0.54
-0.42
-0.16
0.19
0.50
0.65
0.55
0.23
-0.21
-0.58
-0.75
-0.67
-0.44
-0.19
-0.05
-0.03
-0.03
0.05
0.29
0.61
0.83
0.80
0.45
-0.15
-0.79
-1.27
-1.46
-1.35
-1.05
-0.69
-0.38
-0.16
-0.03
0.03
0.04
0.03
0.02
0.03
0.06
0.09
0.12
0.15
0.16
0.15
0.09
-0.02
-0.16
-0.26
-0.25
-0.11
0.12
0.34
0.45
0.42
0.27
0.10
0.00
0.00
0.07
0.14
0.16
0.12
0.06
0.05
0.13
0.31
0.56
0.84
1.09
1.26
1.26
1.04
0.58
-0.04
-0.68
-1.18
-1.42
-1.36
-1.12
-0.84
-0.61
-0.48
-0.37
-0.23
-0.03
0.20
0.36
0.43
0.41
0.36
0.36
0.41
0.47
0.49
0.41
0.24
-0.00
-0.26
-0.48
-0.64
-0.68
-0.59
-0.34
0.03
0.43
0.73
0.83
0.68
0.36
-0.00
-0.27
-0.36
-0.31
-0.16
-0.00
0.15
0.30
0.47
0.64
0.73
0.66
0.39
-0.06
-0.59
-1.04
-1.27
-1.18
-0.78
-0.19
0.43
0.87
1.00
0.81
0.38
-0.13
-0.57
-0.82
-0.87
-0.75
-0.54
-0.31
-0.09
0.09
0.22
0.30
0.33
0.33
0.28
0.18
0.04
-0.15
-0.31
-0.36
-0.25
0.01
0.34
0.59
0.66
0.52
0.21
-0.12
-0.34
-0.39
-0.30
-0.19
-0.16
-0.28
-0.50
-0.69
-0.69
-0.41
0.09
0.62
0.93
0.87
0.47
-0.08
-0.50
-0.61
-0.42
-0.08
0.22
0.36
0.35
0.30
0.28
0.33
0.41
0.44
0.41
0.32
0.20
0.06
-0.10
-0.29
-0.47
-0.58
-0.53
-0.29
0.10
0.51
0.80
0.86
0.68
0.32
-0.08
-0.41
-0.59
-0.62
-0.50
-0.29
-0.03
0.23
0.44
0.55
0.47
0.21
-0.16
-0.53
-0.72
-0.65
-0.32
0.15
0.59
0.81
0.75
0.44
0.01
-0.38
-0.66
-0.79
-0.79
-0.70
-0.50
-0.19
0.23
0.67
1.03
1.21
1.15
0.89
0.52
0.14
-0.15
-0.37
-0.56
-0.77
-1.00
-1.20
-1.29
-1.20
-0.98
-0.67
-0.39
-0.18
-0.04
0.05
0.11
0.13
0.09
-0.04
-0.21
-0.34
-0.33
-0.16
0.14
0.45
0.65
0.72
0.66
0.58
0.55
0.59
0.69
0.79
0.84
0.80
0.70
0.54
0.35
0.15
-0.04
-0.19
-0.25
-0.20
-0.00
0.29
0.60
0.81
0.85
0.69
0.38
0.04
-0.18
-0.19
0.01
0.31
0.51
0.47
0.13
-0.43
-1.03
-1.48
-1.64
-1.49
-1.10
-0.63
-0.22
0.03
0.10
0.04
-0.08
-0.20
-0.26
-0.22
-0.08
0.13
0.33
0.44
0.38
0.15
-0.19
-0.53
-0.75
-0.80
-0.67
-0.41
-0.08
0.23
0.47
0.62
0.67
0.64
0.56
0.46
0.34
0.21
0.03
-0.19
-0.44
-0.65
-0.77
-0.78
-0.69
-0.53
-0.33
-0.11
0.14
0.40
0.63
0.77
0.79
0.69
0.53
0.40
0.34
0.35
0.37
0.35
0.26
0.12
-0.03
-0.15
-0.22
-0.22
-0.16
-0.03
0.15
0.33
0.39
0.28
-0.00
-0.39
-0.74
-0.95
-0.98
-0.85
-0.60
-0.26
0.15
0.57
0.92
1.09
1.00
0.66
0.18
-0.26
-0.52
-0.55
-0.41
-0.21
-0.06
0.02
0.06
0.14
0.29
0.50
0.71
0.84
0.86
0.77
0.60
0.35
0.02
-0.44
-1.00
-1.56
-1.97
-2.06
-1.74
-1.11
-0.38
0.20
0.46
0.40
0.17
-0.02
-0.04
0.11
0.32
0.45
0.41
0.17
-0.17
-0.48
-0.64
-0.60
-0.40
-0.14
0.08
0.19
0.18
0.10
0.01
-0.04
-0.05
-0.01
0.07
0.21
0.41
0.64
0.85
0.97
0.96
0.86
0.73
0.62
0.56
0.52
0.48
0.44
0.41
0.42
0.47
0.54
0.57
0.52
0.34
0.03
-0.38
-0.82
-1.19
-1.39
-1.37
-1.17
-0.90
-0.69
-0.60
-0.59
-0.56
-0.40
-0.11
0.23
0.46
0.51
0.37
0.15
-0.04
-0.09
-0.01
0.13
0.24
0.28
0.23
0.13
0.01
-0.11
-0.20
-0.25
-0.24
-0.14
0.02
0.19
0.31
0.33
0.26
0.17
0.11
0.12
0.16
0.16
0.07
-0.11
-0.28
-0.36
-0.29
-0.10
0.13
0.28
0.30
0.22
0.11
0.05
0.07
0.14
0.16
0.08
-0.11
-0.32
-0.44
-0.43
-0.27
-0.05
0.11
0.13
0.02
-0.17
-0.34
-0.46
-0.51
-0.53
-0.52
-0.48
-0.36
-0.15
0.11
0.35
0.50
0.54
0.45
0.31
0.17
0.09
0.09
0.17
0.28
0.36
0.33
0.15
-0.15
-0.44
-0.57
-0.40
0.08
0.73
1.27
1.49
1.28
0.73
0.07
-0.47
-0.74
-0.74
-0.56
-0.33
-0.14
0.00
0.09
0.13
0.11
0.04
-0.04
-0.09
-0.04
0.13
0.33
0.48
0.48
0.32
0.08
-0.15
-0.28
-0.30
-0.25
-0.17
-0.13
-0.12
-0.13
-0.11
-0.03
0.10
0.24
0.33
0.34
0.25
0.12
-0.02
-0.10
-0.14
-0.18
-0.24
-0.34
-0.42
-0.43
-0.29
-0.01
0.32
0.61
0.76
0.73
0.55
0.32
0.12
0.02
0.06
0.21
0.38
0.49
0.50
0.41
0.30
0.25
0.26
0.29
0.24
0.05
-0.29
-0.70
-1.06
-1.26
-1.28
-1.14
-0.93
-0.71
-0.53
-0.40
-0.31
-0.27
-0.30
-0.38
-0.47
-0.51
-0.49
-0.39
-0.25
-0.09
0.07
0.22
0.35
0.44
0.45
0.35
0.16
-0.09
-0.31
-0.45
-0.50
-0.48
-0.43
-0.38
-0.33
-0.24
-0.09
0.13
0.37
0.60
0.75
0.81
0.77
0.65
0.51
0.40
0.34
0.35
0.38
0.41
0.41
0.40
0.37
0.35
0.31
0.27
0.23
0.21
0.22
0.23
0.18
0.04
-0.15
-0.31
-0.37
-0.31
-0.20
-0.15
-0.26
-0.47
-0.65
-0.62
-0.34
0.12
0.56
0.81
0.77
0.49
0.08
-0.33
-0.68
-0.92
-1.03
-0.99
-0.79
-0.45
-0.05
0.29
0.48
0.48
0.32
0.10
-0.07
-0.11
0.02
0.23
0.44
0.53
0.45
0.27
0.09
0.06
0.23
0.57
0.96
1.22
1.26
1.07
0.73
0.36
0.07
-0.09
-0.13
-0.15
-0.22
-0.38
-0.60
-0.79
-0.88
-0.83
-0.70
-0.58
-0.57
-0.69
-0.89
-1.06
-1.10
-0.96
-0.66
-0.27
0.10
0.38
0.51
0.51
0.41
0.29
0.21
0.20
0.27
0.39
0.50
0.57
0.57
0.50
0.39
0.24
0.05
-0.18
-0.44
-0.69
-0.88
-0.96
-0.88
-0.62
-0.23
0.21
0.58
0.81
0.88
0.82
0.72
0.63
0.58
0.52
0.40
0.19
-0.07
-0.26
-0.28
-0.10
0.21
0.47
0.53
0.30
-0.13
-0.61
-0.93
-0.96
-0.69
-0.25
0.22
0.55
0.66
0.57
0.34
0.10
-0.07
-0.14
-0.14
-0.13
-0.17
-0.29
-0.43
-0.55
-0.59
-0.56
-0.50
-0.44
-0.41
-0.40
-0.37
-0.30
-0.22
-0.17
-0.17
-0.19
-0.17
-0.05
0.19
0.47
0.68
0.71
0.53
0.24
-0.04
-0.19
-0.19
-0.11
-0.07
-0.12
-0.24
-0.32
-0.28
-0.09
0.17
0.36
0.41
0.30
0.12
-0.03
-0.07
-0.00
0.13
0.27
0.38
0.46
0.53
0.58
0.59
0.52
0.38
0.23
0.11
0.08
0.16
0.28
0.36
0.32
0.11
-0.23
-0.64
-1.00
-1.24
-1.32
-1.25
-1.06
-0.77
-0.41
-0.01
0.41
0.81
1.11
1.27
1.26
1.09
0.80
0.50
0.26
0.19
0.28
0.50
0.71
0.78
0.62
0.26
-0.20
-0.61
-0.85
-0.90
-0.80
-0.64
-0.48
-0.34
-0.18
0.01
0.18
0.27
0.17
-0.13
-0.56
-0.97
-1.19
-1.12
-0.78
-0.28
0.23
0.62
0.81
0.82
0.70
0.53
0.38
0.29
0.26
0.27
0.28
0.29
0.28
0.26
0.22
0.14
-0.02
-0.29
-0.61
-0.92
-1.11
-1.13
-1.03
-0.86
-0.70
-0.56
-0.38
-0.14
0.13
0.36
0.45
0.37
0.18
0.01
-0.04
0.08
0.29
0.49
0.59
0.54
0.38
0.14
-0.13
-0.38
-0.59
-0.69
-0.66
-0.49
-0.24
0.01
0.16
0.21
0.20
0.23
0.35
0.52
0.67
0.71
0.62
0.44
0.25
0.08
-0.08
-0.26
-0.49
-0.75
-0.94
-0.97
-0.76
-0.32
0.28
0.87
1.28
1.36
1.05
0.43
-0.30
-0.92
-1.22
-1.18
-0.90
-0.54
-0.22
0.03
0.27
0.58
0.93
1.25
1.39
1.26
0.90
0.48
0.22
0.24
0.55
0.97
1.27
1.28
0.98
0.51
0.08
-0.17
-0.21
-0.13
-0.09
-0.16
-0.31
-0.47
-0.57
-0.60
-0.62
-0.72
-0.91
-1.13
-1.27
-1.24
-1.02
-0.66
-0.27
0.03
0.20
0.25
0.23
0.24
0.31
0.43
0.54
0.58
0.54
0.45
0.35
0.29
0.26
0.22
0.12
-0.03
-0.21
-0.31
-0.27
-0.07
0.23
0.53
0.72
0.72
0.54
0.27
-0.00
-0.17
-0.23
-0.22
-0.22
-0.28
-0.39
-0.44
-0.37
-0.16
0.10
0.25
0.18
-0.10
-0.46
-0.72
-0.75
-0.57
-0.32
-0.17
-0.23
-0.50
-0.82
-1.04
-1.06
-0.90
-0.66
-0.46
-0.40
-0.44
-0.49
-0.43
-0.18
0.19
0.58
0.82
0.83
0.65
0.41
0.24
0.18
0.22
0.27
0.27
0.26
0.30
0.42
0.61
0.81
0.93
0.93
0.81
0.63
0.47
0.37
0.34
0.33
0.31
0.21
0.03
-0.21
-0.42
-0.54
-0.51
-0.33
-0.07
0.16
0.28
0.25
0.12
-0.02
-0.12
-0.17
-0.24
-0.38
-0.61
-0.86
-0.99
-0.88
-0.50
0.07
0.61
0.92
0.90
0.57
0.10
-0.33
-0.60
-0.67
-0.63
-0.57
-0.56
-0.63
-0.77
-0.95
-1.08
-1.13
-1.06
-0.87
-0.60
-0.30
-0.01
0.23
0.42
0.53
0.52
0.34
-0.02
-0.46
-0.84
-1.01
-0.89
-0.52
-0.04
0.40
0.69
0.83
0.87
0.88
0.88
0.84
0.74
0.59
0.48
0.48
0.59
0.77
0.91
0.92
0.80
0.63
0.53
0.57
0.69
0.78
0.70
0.38
-0.11
-0.63
-1.02
-1.18
-1.12
-0.91
-0.65
-0.42
-0.27
-0.19
-0.15
-0.12
-0.07
0.02
0.12
0.23
0.33
0.39
0.42
0.40
0.33
0.23
0.15
0.18
0.33
0.57
0.81
0.93
0.87
0.68
0.48
0.37
0.37
0.39
0.29
0.00
-0.43
-0.86
-1.11
-1.09
-0.83
-0.51
-0.28
-0.24
-0.34
-0.47
-0.52
-0.46
-0.35
-0.30
-0.40
-0.65
-0.95
-1.15
-1.17
-0.97
-0.61
-0.16
0.27
0.63
0.87
0.99
0.97
0.86
0.71
0.59
0.54
0.52
0.49
0.39
0.18
-0.12
-0.44
-0.67
-0.74
-0.60
-0.26
0.18
0.58
0.81
0.82
0.64
0.38
0.16
0.04
0.01
-0.00
0.00
0.05
0.20
0.47
0.81
1.08
1.18
1.03
0.69
0.24
-0.16
-0.44
-0.55
-0.50
-0.33
-0.10
0.12
0.25
0.27
0.16
-0.03
-0.25
-0.45
-0.62
-0.77
-0.90
-0.97
-0.96
-0.83
-0.61
-0.35
-0.10
0.05
0.07
-0.06
-0.29
-0.59
-0.86
-1.05
-1.09
-0.95
-0.68
-0.32
0.04
0.38
0.66
0.89
1.04
1.07
0.94
0.67
0.37
0.17
0.19
0.45
0.82
1.09
1.11
0.83
0.37
-0.06
-0.29
-0.26
-0.05
0.21
0.35
0.30
0.06
-0.30
-0.67
-0.94
-1.02
-0.88
-0.58
-0.21
0.08
0.21
0.15
-0.01
-0.19
-0.32
-0.38
-0.41
-0.43
-0.47
-0.48
-0.43
-0.30
-0.13
0.01
0.06
0.04
0.00
0.03
0.16
0.36
0.58
0.71
0.76
0.77
0.82
0.91
0.99
0.94
0.68
0.28
-0.13
-0.36
-0.32
-0.03
0.32
0.56
0.58
0.36
0.01
-0.38
-0.72
-0.98
-1.13
-1.16
-1.05
-0.80
-0.47
-0.15
0.06
0.12
0.05
-0.09
-0.23
-0.34
-0.42
-0.47
-0.51
-0.50
-0.41
-0.26
-0.09
0.02
-0.02
-0.20
-0.44
-0.60
-0.57
-0.32
0.07
0.45
0.68
0.69
0.53
0.29
0.11
0.08
0.20
0.38
0.50
0.49
0.31
-0.01
-0.36
-0.64
-0.74
-0.63
-0.34
0.04
0.38
0.61
0.71
0.73
0.71
0.69
0.61
0.40
0.05
-0.40
-0.79
-0.97
-0.85
-0.44
0.11
0.61
0.89
0.90
0.68
0.36
0.09
-0.05
-0.01
0.19
0.48
0.76
0.95
0.97
0.81
0.55
0.27
0.08
0.00
0.01
-0.02
-0.16
-0.43
-0.78
-1.10
-1.26
-1.23
-1.03
-0.73
-0.40
-0.11
0.11
0.24
0.32
0.33
0.31
0.25
0.14
-0.03
-0.24
-0.43
-0.54
-0.52
-0.39
-0.23
-0.14
-0.17
-0.28
-0.35
-0.27
0.01
0.40
0.72
0.82
0.65
0.28
-0.11
-0.35
-0.33
-0.10
0.20
0.42
0.47
0.34
0.13
-0.05
-0.12
-0.10
-0.05
-0.05
-0.10
-0.17
-0.17
-0.04
0.19
0.42
0.50
0.38
0.10
-0.23
-0.45
-0.49
-0.39
-0.25
-0.17
-0.18
-0.26
-0.30
-0.24
-0.06
0.17
0.37
0.49
0.51
0.45
0.38
0.31
0.23
0.10
-0.11
-0.42
-0.75
-1.02
-1.11
-0.97
-0.62
-0.17
0.27
0.62
0.87
1.01
1.04
0.94
0.67
0.27
-0.16
-0.49
-0.61
-0.52
-0.31
-0.11
-0.00
-0.04
-0.17
-0.34
-0.49
-0.55
-0.48
-0.26
0.06
0.39
0.60
0.63
0.50
0.33
0.25
0.35
0.56
0.77
0.82
0.71
0.48
0.26
0.17
0.22
0.34
0.45
0.47
0.40
0.26
0.06
-0.17
-0.43
-0.71
-0.98
-1.19
-1.28
-1.20
-0.94
-0.52
0.00
0.50
0.82
0.85
0.56
0.06
-0.47
-0.81
-0.86
-0.66
-0.38
-0.16
-0.09
-0.12
-0.13
-0.04
0.16
0.40
0.60
0.70
0.73
0.72
0.68
0.59
0.42
0.17
-0.10
-0.32
-0.42
-0.41
-0.35
-0.30
-0.28
-0.23
-0.13
0.02
0.14
0.14
-0.05
-0.36
-0.65
-0.72
-0.51
-0.07
0.44
0.78
0.86
0.70
0.42
0.18
0.06
0.07
0.12
0.14
0.09
-0.01
-0.13
-0.20
-0.21
-0.20
-0.22
-0.28
-0.37
-0.41
-0.34
-0.11
0.20
0.48
0.61
0.54
0.30
0.02
-0.19
-0.26
-0.22
-0.14
-0.05
0.02
0.13
0.28
0.44
0.56
0.60
0.56
0.47
0.36
0.19
-0.07
-0.45
-0.90
-1.27
-1.41
-1.26
-0.90
-0.49
-0.20
-0.10
-0.13
-0.14
-0.05
0.12
0.25
0.27
0.16
0.05
0.07
0.28
0.59
0.80
0.77
0.49
0.10
-0.18
-0.17
0.14
0.59
0.95
1.05
0.86
0.47
0.07
-0.18
-0.22
-0.12
0.02
0.10
0.07
-0.02
-0.07
-0.02
0.13
0.27
0.28
0.09
-0.23
-0.52
-0.62
-0.46
-0.13
0.18
0.28
0.12
-0.22
-0.55
-0.71
-0.64
-0.42
-0.17
0.01
0.08
0.06
-0.02
-0.14
-0.26
-0.34
-0.31
-0.16
0.03
0.16
0.13
-0.08
-0.36
-0.56
-0.57
-0.38
-0.11
0.14
0.31
0.45
0.63
0.84
0.97
0.86
0.45
-0.17
-0.78
-1.11
-1.05
-0.64
-0.11
0.32
0.48
0.40
0.20
0.03
-0.01
0.08
0.21
0.28
0.23
0.06
-0.13
-0.24
-0.21
0.00
0.34
0.69
0.96
1.08
1.05
0.91
0.68
0.42
0.12
-0.17
-0.40
-0.52
-0.49
-0.36
-0.19
-0.08
-0.08
-0.15
-0.20
-0.16
-0.00
0.18
0.26
0.14
-0.17
-0.59
-0.95
-1.16
-1.18
-1.05
-0.88
-0.72
-0.61
-0.53
-0.46
-0.39
-0.30
-0.19
-0.04
0.16
0.39
0.60
0.76
0.83
0.83
0.75
0.63
0.44
0.20
-0.05
-0.26
-0.32
-0.16
0.18
0.59
0.91
0.99
0.81
0.43
-0.01
-0.38
-0.58
-0.59
-0.47
-0.26
-0.03
0.15
0.24
0.20
0.05
-0.16
-0.37
-0.50
-0.54
-0.53
-0.50
-0.52
-0.58
-0.63
-0.60
-0.43
-0.09
0.31
0.65
0.80
0.69
0.39
0.03
-0.25
-0.37
-0.34
-0.25
-0.18
-0.18
-0.23
-0.29
-0.34
-0.39
-0.45
-0.51
-0.55
-0.52
-0.37
-0.08
0.33
0.81
1.24
1.51
1.57
1.41
1.12
0.81
0.57
0.44
0.37
0.28
0.10
-0.14
-0.39
-0.58
-0.71
-0.79
-0.85
-0.89
-0.87
-0.76
-0.54
-0.25
0.03
0.25
0.39
0.47
0.54
0.56
0.48
0.25
-0.10
-0.45
-0.67
-0.65
-0.43
-0.13
0.07
0.08
-0.09
-0.32
-0.45
-0.39
-0.17
0.15
0.46
0.69
0.81
0.81
0.71
0.54
0.34
0.16
0.03
-0.02
-0.02
0.01
0.06
0.16
0.31
0.51
0.72
0.87
0.92
0.84
0.62
0.30
-0.08
-0.45
-0.73
-0.81
-0.62
-0.19
0.33
0.74
0.86
0.62
0.12
-0.45
-0.85
-0.97
-0.83
-0.53
-0.21
0.02
0.15
0.21
0.22
0.20
0.16
0.09
0.00
-0.06
-0.07
-0.03
0.05
0.13
0.16
0.14
0.09
0.02
-0.05
-0.12
-0.21
-0.34
-0.48
-0.58
-0.58
-0.44
-0.18
0.14
0.41
0.52
0.43
0.16
-0.20
-0.54
-0.75
-0.78
-0.63
-0.37
-0.10
0.09
0.18
0.16
0.07
-0.05
-0.17
-0.25
-0.28
-0.24
-0.11
0.08
0.30
0.49
0.59
0.58
0.44
0.19
-0.11
-0.44
-0.72
-0.88
-0.89
-0.72
-0.45
-0.15
0.09
0.19
0.18
0.10
0.03
0.04
0.16
0.37
0.62
0.85
1.01
1.07
1.00
0.83
0.57
0.29
0.06
-0.08
-0.10
-0.02
0.10
0.20
0.21
0.10
-0.11
-0.37
-0.63
-0.80
-0.85
-0.79
-0.67
-0.57
-0.55
-0.64
-0.79
-0.95
-1.03
-0.99
-0.83
-0.58
-0.31
-0.08
0.07
0.18
0.28
0.42
0.61
0.82
0.99
1.08
1.07
0.98
0.85
0.72
0.59
0.46
0.35
0.26
0.24
0.28
0.38
0.51
0.63
0.70
0.71
0.62
0.47
0.27
0.07
-0.08
-0.14
-0.13
-0.07
-0.01
0.01
-0.01
-0.08
-0.18
-0.27
-0.32
-0.31
-0.22
-0.07
0.09
0.19
0.19
0.09
-0.06
-0.20
-0.28
-0.32
-0.33
-0.35
-0.37
-0.40
-0.45
-0.58
-0.82
-1.12
-1.39
-1.48
-1.32
-0.92
-0.44
-0.04
0.17
0.22
0.21
0.24
0.35
0.46
0.50
0.41
0.24
0.05
-0.08
-0.13
-0.11
-0.08
-0.07
-0.10
-0.15
-0.24
-0.36
-0.50
-0.58
-0.52
-0.25
0.16
0.59
0.84
0.84
0.59
0.24
-0.05
-0.18
-0.16
-0.06
0.02
0.06
0.08
0.13
0.22
0.31
0.33
0.26
0.11
-0.05
-0.17
-0.17
-0.08
0.06
0.18
0.23
0.20
0.13
0.07
0.07
0.16
0.28
0.40
0.49
0.54
0.59
0.63
0.66
0.61
0.43
0.10
-0.31
-0.67
-0.84
-0.75
-0.43
-0.01
0.34
0.51
0.47
0.31
0.15
0.07
0.10
0.20
0.29
0.33
0.31
0.26
0.24
0.29
0.39
0.48
0.50
0.43
0.26
0.04
-0.17
-0.32
-0.39
-0.41
-0.44
-0.50
-0.57
-0.59
-0.51
-0.30
-0.03
0.22
0.32
0.22
-0.06
-0.41
-0.71
-0.87
-0.89
-0.82
-0.71
-0.59
-0.46
-0.29
-0.12
0.00
0.02
-0.10
-0.30
-0.48
-0.52
-0.37
-0.05
0.34
0.66
0.82
0.80
0.65
0.42
0.19
-0.01
-0.17
-0.24
-0.21
-0.04
0.24
0.55
0.79
0.85
0.75
0.56
0.40
0.35
0.39
0.43
0.38
0.24
0.06
-0.07
-0.13
-0.17
-0.29
-0.53
-0.88
-1.20
-1.33
-1.23
-0.93
-0.59
-0.33
-0.23
-0.24
-0.29
-0.31
-0.25
-0.14
-0.00
0.17
0.38
0.60
0.80
0.90
0.83
0.60
0.28
-0.05
-0.28
-0.38
-0.37
-0.28
-0.18
-0.08
-0.01
-0.00
-0.06
-0.20
-0.39
-0.58
-0.71
-0.74
-0.65
-0.46
-0.23
0.02
0.25
0.48
0.69
0.89
1.04
1.08
0.98
0.73
0.35
-0.05
-0.36
-0.49
-0.42
-0.25
-0.09
-0.00
-0.01
-0.05
-0.02
0.08
0.22
0.30
0.25
0.09
-0.09
-0.19
-0.12
0.09
0.35
0.53
0.50
0.24
-0.20
-0.67
-0.97
-0.98
-0.66
-0.14
0.39
0.75
0.89
0.86
0.79
0.75
0.75
0.75
0.69
0.59
0.49
0.43
0.40
0.37
0.30
0.19
0.06
-0.07
-0.20
-0.35
-0.54
-0.74
-0.88
-0.89
-0.75
-0.47
-0.12
0.22
0.49
0.65
0.66
0.48
0.11
-0.38
-0.88
-1.26
-1.40
-1.32
-1.07
-0.77
-0.48
-0.25
-0.09
-0.01
-0.01
-0.08
-0.15
-0.18
-0.11
0.03
0.19
0.30
0.33
0.31
0.30
0.35
0.44
0.50
0.47
0.34
0.14
-0.06
-0.19
-0.22
-0.10
0.14
0.44
0.72
0.88
0.89
0.77
0.63
0.57
0.61
0.68
0.67
0.46
0.06
-0.44
-0.92
-1.24
-1.35
-1.28
-1.05
-0.74
-0.38
-0.06
0.17
0.26
0.20
0.08
-0.04
-0.06
0.02
0.17
0.30
0.35
0.28
0.10
-0.12
-0.29
-0.32
-0.18
0.10
0.40
0.57
0.54
0.34
0.09
-0.04
0.04
0.31
0.64
0.85
0.86
0.66
0.34
-0.01
-0.32
-0.56
-0.73
-0.80
-0.77
-0.62
-0.42
-0.26
-0.19
-0.23
-0.30
-0.35
-0.33
-0.24
-0.12
0.00
0.11
0.21
0.25
0.21
0.04
-0.23
-0.57
-0.88
-1.06
-1.06
-0.89
-0.58
-0.18
0.25
0.64
0.91
0.97
0.79
0.41
-0.04
-0.43
-0.63
-0.58
-0.34
-0.01
0.30
0.54
0.67
0.73
0.72
0.66
0.52
0.32
0.10
-0.06
-0.10
0.00
0.20
0.37
0.40
0.19
-0.22
-0.73
-1.20
-1.51
-1.59
-1.43
-1.09
-0.64
-0.17
0.22
0.46
0.50
0.38
0.19
0.08
0.16
0.47
0.94
1.46
1.87
2.06
1.96
1.59
1.04
0.40
-0.18
-0.60
-0.77
-0.66
-0.35
0.03
0.33
0.48
0.44
0.28
0.08
-0.08
-0.17
-0.21
-0.22
-0.24
-0.27
-0.32
-0.37
-0.41
-0.40
-0.33
-0.16
0.05
0.21
0.24
0.06
-0.30
-0.72
-1.04
-1.17
-1.11
-0.96
-0.83
-0.77
-0.73
-0.64
-0.45
-0.19
0.02
0.09
-0.01
-0.19
-0.28
-0.20
0.09
0.47
0.79
0.93
0.86
0.62
0.30
0.00
-0.19
-0.22
-0.08
0.21
0.57
0.92
1.14
1.14
0.93
0.56
0.20
0.02
0.09
0.40
0.79
1.05
1.06
0.77
0.31
-0.18
-0.54
-0.71
-0.68
-0.53
-0.32
-0.13
-0.01
-0.01
-0.14
-0.41
-0.72
-0.97
-1.03
-0.87
-0.53
-0.17
0.07
0.11
-0.01
-0.18
-0.30
-0.31
-0.24
-0.20
-0.26
-0.40
-0.56
-0.59
-0.45
-0.14
0.23
0.52
0.63
0.53
0.28
0.01
-0.16
-0.15
0.01
0.25
0.43
0.46
0.31
0.03
-0.23
-0.37
-0.31
-0.05
0.31
0.62
0.78
0.77
0.64
0.48
0.34
0.23
0.13
-0.01
-0.15
-0.26
-0.24
-0.08
0.18
0.46
0.67
0.74
0.70
0.56
0.35
0.11
-0.14
-0.37
-0.52
-0.54
-0.48
-0.38
-0.33
-0.39
-0.53
-0.64
-0.64
-0.46
-0.15
0.16
0.35
0.35
0.15
-0.16
-0.51
-0.81
-1.01
-1.08
-0.98
-0.69
-0.24
0.28
0.72
0.96
0.95
0.72
0.41
0.15
0.01
0.01
0.11
0.25
0.40
0.52
0.61
0.63
0.54
0.32
0.02
-0.29
-0.56
-0.73
-0.82
-0.87
-0.90
-0.90
-0.82
-0.65
-0.40
-0.12
0.12
0.26
0.29
0.24
0.18
0.14
0.19
0.30
0.43
0.51
0.47
0.32
0.08
-0.14
-0.26
-0.27
-0.20
-0.12
-0.02
0.11
0.33
0.62
0.91
1.06
0.98
0.70
0.30
-0.06
-0.31
-0.43
-0.49
-0.52
-0.54
-0.48
-0.31
-0.06
0.19
0.33
0.32
0.16
-0.05
-0.20
-0.27
-0.28
-0.31
-0.37
-0.42
-0.33
-0.02
0.49
1.03
1.35
1.28
0.79
0.09
-0.54
-0.87
-0.82
-0.51
-0.13
0.16
0.32
0.39
0.45
0.53
0.59
0.57
0.41
0.09
-0.33
-0.76
-1.09
-1.20
-1.06
-0.72
-0.31
0.02
0.18
0.16
0.05
-0.04
-0.04
0.02
0.05
0.01
-0.11
-0.21
-0.22
-0.12
0.06
0.22
0.29
0.28
0.23
0.20
0.24
0.30
0.35
0.33
0.23
0.09
-0.04
-0.10
-0.07
0.04
0.14
0.19
0.16
0.09
0.02
-0.00
0.02
0.01
-0.07
-0.28
-0.56
-0.81
-0.91
-0.79
-0.46
-0.02
0.41
0.66
0.68
0.49
0.22
0.04
0.07
0.28
0.56
0.74
0.71
0.52
0.28
0.11
0.02
-0.07
-0.28
-0.60
-0.90
-1.02
-0.83
-0.42
0.01
0.27
0.26
0.03
-0.25
-0.44
-0.49
-0.46
-0.40
-0.33
-0.25
-0.08
0.14
0.38
0.56
0.59
0.48
0.28
0.04
-0.21
-0.41
-0.55
-0.56
-0.38
-0.04
0.39
0.76
0.92
0.81
0.50
0.16
-0.04
0.01
0.24
0.47
0.52
0.30
-0.12
-0.56
-0.84
-0.87
-0.68
-0.42
-0.21
-0.11
-0.07
-0.02
0.10
0.26
0.38
0.39
0.27
0.07
-0.12
-0.21
-0.17
0.02
0.35
0.76
1.14
1.38
1.36
1.05
0.51
-0.12
-0.65
-0.93
-0.90
-0.61
-0.23
0.11
0.28
0.29
0.21
0.13
0.14
0.23
0.35
0.39
0.32
0.12
-0.16
-0.42
-0.63
-0.74
-0.74
-0.66
-0.55
-0.46
-0.43
-0.49
-0.60
-0.69
-0.69
-0.58
-0.37
-0.09
0.21
0.52
0.81
1.06
1.18
1.11
0.84
0.41
-0.04
-0.36
-0.47
-0.40
-0.24
-0.10
-0.03
0.01
0.08
0.21
0.38
0.51
0.52
0.39
0.16
-0.09
-0.32
-0.48
-0.60
-0.69
-0.72
-0.68
-0.54
-0.29
0.05
0.41
0.69
0.82
0.75
0.51
0.20
-0.05
-0.16
-0.12
-0.01
0.06
0.03
-0.09
-0.23
-0.31
-0.33
-0.32
-0.36
-0.46
-0.59
-0.66
-0.60
-0.39
-0.11
0.14
0.25
0.19
-0.01
-0.25
-0.38
-0.34
-0.13
0.16
0.39
0.44
0.30
0.02
-0.30
-0.60
-0.84
-1.01
-1.09
-1.01
-0.72
-0.21
0.39
0.89
1.13
1.07
0.81
0.54
0.40
0.38
0.37
0.25
0.01
-0.22
-0.28
-0.08
0.31
0.71
0.94
0.89
0.64
0.33
0.11
0.01
-0.04
-0.12
-0.30
-0.51
-0.67
-0.69
-0.58
-0.40
-0.22
-0.10
-0.03
0.03
0.10
0.18
0.21
0.18
0.12
0.08
0.16
0.36
0.59
0.74
0.67
0.32
-0.22
-0.79
-1.18
-1.24
-0.96
-0.46
0.06
0.41
0.48
0.30
-0.03
-0.35
-0.58
-0.64
-0.56
-0.37
-0.10
0.21
0.52
0.78
0.94
0.91
0.67
0.22
-0.34
-0.85
-1.15
-1.13
-0.81
-0.34
0.12
0.41
0.49
0.45
0.41
0.45
0.60
0.80
0.97
1.05
1.03
0.90
0.66
0.32
-0.09
-0.48
-0.74
-0.78
-0.54
-0.12
0.33
0.63
0.69
0.50
0.20
-0.07
-0.22
-0.24
-0.18
-0.13
-0.15
-0.22
-0.28
-0.25
-0.08
0.20
0.49
0.69
0.66
0.39
-0.09
-0.61
-0.98
-1.06
-0.80
-0.34
0.14
0.44
0.49
0.31
0.05
-0.16
-0.26
-0.25
-0.19
-0.13
-0.08
0.01
0.17
0.38
0.57
0.66
0.61
0.45
0.26
0.16
0.17
0.27
0.36
0.32
0.10
-0.27
-0.67
-0.97
-1.06
-0.93
-0.69
-0.44
-0.30
-0.30
-0.42
-0.55
-0.61
-0.55
-0.35
-0.06
0.24
0.47
0.54
0.45
0.21
-0.11
-0.40
-0.56
-0.54
-0.37
-0.10
0.16
0.34
0.45
0.52
0.61
0.74
0.89
0.98
0.92
0.73
0.46
0.24
0.18
0.29
0.48
0.62
0.62
0.48
0.30
0.22
0.30
0.47
0.59
0.49
0.13
-0.41
-0.96
-1.33
-1.43
-1.30
-1.08
-0.89
-0.80
-0.79
-0.76
-0.65
-0.48
-0.28
-0.11
0.01
0.13
0.30
0.51
0.69
0.73
0.57
0.26
-0.09
-0.29
-0.28
-0.09
0.13
0.23
0.13
-0.09
-0.29
-0.33
-0.19
0.06
0.30
0.44
0.45
0.38
0.28
0.16
0.00
-0.24
-0.54
-0.81
-0.97
-0.99
-0.88
-0.74
-0.61
-0.49
-0.34
-0.11
0.18
0.44
0.57
0.51
0.29
0.01
-0.19
-0.22
-0.07
0.22
0.56
0.86
1.09
1.22
1.25
1.19
1.04
0.80
0.47
0.08
-0.33
-0.69
-0.96
-1.07
-1.04
-0.89
-0.69
-0.47
-0.29
-0.16
-0.11
-0.13
-0.20
-0.29
-0.31
-0.22
0.01
0.35
0.69
0.92
0.93
0.73
0.40
0.11
-0.03
0.02
0.20
0.39
0.47
0.40
0.20
-0.07
-0.33
-0.51
-0.54
-0.41
-0.15
0.16
0.41
0.53
0.49
0.35
0.20
0.10
0.05
-0.03
-0.17
-0.40
-0.63
-0.77
-0.75
-0.59
-0.41
-0.33
-0.43
-0.66
-0.91
-1.03
-0.93
-0.65
-0.30
0.01
0.20
0.29
0.35
0.42
0.51
0.56
0.50
0.34
0.11
-0.06
-0.11
0.00
0.20
0.39
0.48
0.46
0.33
0.17
0.06
0.03
0.11
0.24
0.39
0.50
0.56
0.60
0.64
0.67
0.67
0.59
0.40
0.12
-0.21
-0.51
-0.72
-0.80
-0.72
-0.51
-0.20
0.14
0.39
0.44
0.25
-0.15
-0.63
-1.02
-1.16
-1.02
-0.66
-0.23
0.13
0.32
0.32
0.20
0.04
-0.09
-0.14
-0.12
-0.08
-0.04
-0.05
-0.06
-0.02
0.12
0.36
0.66
0.91
1.03
0.96
0.72
0.38
0.04
-0.21
-0.32
-0.26
-0.06
0.22
0.48
0.62
0.57
0.36
0.05
-0.24
-0.41
-0.42
-0.29
-0.09
0.09
0.16
0.08
-0.14
-0.43
-0.69
-0.82
-0.77
-0.58
-0.35
-0.15
-0.07
-0.07
-0.08
-0.04
0.06
0.17
0.24
0.20
0.10
-0.00
-0.03
0.03
0.15
0.26
0.28
0.20
0.08
0.01
0.08
0.26
0.48
0.61
0.59
0.44
0.22
0.03
-0.07
-0.10
-0.12
-0.16
-0.21
-0.20
-0.10
0.10
0.31
0.44
0.43
0.32
0.22
0.21
0.32
0.48
0.60
0.60
0.50
0.35
0.19
0.05
-0.12
-0.34
-0.61
-0.83
-0.92
-0.84
-0.63
-0.36
-0.12
0.04
0.12
0.09
-0.05
-0.32
-0.69
-1.05
-1.28
-1.27
-1.00
-0.53
0.04
0.55
0.91
1.06
0.99
0.76
0.44
0.12
-0.13
-0.27
-0.29
-0.23
-0.14
-0.07
-0.07
-0.13
-0.24
-0.33
-0.34
-0.24
-0.06
0.14
0.28
0.31
0.22
0.05
-0.13
-0.27
-0.36
-0.43
-0.51
-0.65
-0.86
-1.07
-1.19
-1.11
-0.79
-0.31
0.20
0.57
0.69
0.61
0.44
0.35
0.42
0.64
0.88
1.03
1.01
0.85
0.68
0.60
0.66
0.82
1.00
1.11
1.13
1.07
0.97
0.83
0.64
0.35
-0.05
-0.46
-0.78
-0.88
-0.73
-0.39
0.02
0.30
0.34
0.07
-0.44
-1.04
-1.55
-1.79
-1.67
-1.25
-0.68
-0.20
0.02
-0.05
-0.30
-0.55
-0.61
-0.40
-0.01
0.42
0.73
0.81
0.69
0.46
0.24
0.13
0.11
0.14
0.11
-0.05
-0.32
-0.59
-0.74
-0.64
-0.29
0.21
0.68
0.97
1.02
0.84
0.55
0.24
-0.02
-0.20
-0.31
-0.32
-0.24
-0.07
0.13
0.30
0.33
0.22
-0.03
-0.31
-0.56
-0.70
-0.72
-0.67
-0.56
-0.41
-0.18
0.11
0.43
0.73
0.92
0.95
0.82
0.56
0.24
-0.10
-0.43
-0.72
-0.94
-1.05
-1.02
-0.84
-0.54
-0.20
0.09
0.27
0.34
0.32
0.25
0.16
0.11
0.12
0.22
0.43
0.75
1.11
1.41
1.53
1.40
1.04
0.57
0.11
-0.19
-0.31
-0.28
-0.18
-0.10
-0.08
-0.12
-0.19
-0.24
-0.26
-0.30
-0.39
-0.57
-0.79
-0.97
-1.02
-0.89
-0.62
-0.33
-0.14
-0.10
-0.19
-0.32
-0.38
-0.34
-0.20
-0.04
0.10
0.18
0.24
0.28
0.33
0.37
0.39
0.39
0.35
0.30
0.23
0.17
0.14
0.19
0.33
0.53
0.74
0.84
0.76
0.45
-0.05
-0.64
-1.16
-1.48
-1.52
-1.30
-0.90
-0.47
-0.14
0.03
0.05
0.00
-0.04
-0.03
0.02
0.09
0.17
0.28
0.41
0.56
0.66
0.66
0.52
0.27
0.01
-0.15
-0.13
0.06
0.40
0.78
1.12
1.33
1.36
1.16
0.78
0.30
-0.15
-0.46
-0.59
-0.59
-0.55
-0.52
-0.55
-0.57
-0.55
-0.46
-0.30
-0.16
-0.12
-0.23
-0.48
-0.78
-1.01
-1.06
-0.89
-0.58
-0.25
-0.01
0.08
0.11
0.18
0.35
0.60
0.79
0.81
0.61
0.27
-0.08
-0.31
-0.38
-0.36
-0.32
-0.33
-0.41
-0.50
-0.56
-0.55
-0.47
-0.32
-0.10
0.19
0.52
0.83
1.06
1.13
1.05
0.86
0.63
0.41
0.21
-0.00
-0.24
-0.47
-0.62
-0.60
-0.38
-0.00
0.40
0.72
0.88
0.87
0.74
0.52
0.24
-0.12
-0.51
-0.82
-0.92
-0.72
-0.24
0.33
0.78
0.89
0.65
0.20
-0.24
-0.47
-0.42
-0.20
0.05
0.20
0.17
-0.01
-0.29
-0.60
-0.90
-1.13
-1.22
-1.10
-0.77
-0.29
0.19
0.49
0.52
0.25
-0.18
-0.59
-0.80
-0.72
-0.41
0.01
0.40
0.68
0.83
0.91
0.93
0.90
0.79
0.61
0.38
0.19
0.09
0.09
0.12
0.14
0.11
0.08
0.07
0.12
0.15
0.07
-0.18
-0.58
-0.95
-1.13
-1.03
-0.67
-0.23
0.12
0.31
0.36
0.37
0.42
0.52
0.63
0.67
0.61
0.52
0.44
0.40
0.39
0.32
0.11
-0.26
-0.76
-1.27
-1.68
-1.85
-1.72
-1.32
-0.74
-0.12
0.39
0.69
0.77
0.69
0.54
0.43
0.42
0.53
0.72
0.94
1.12
1.21
1.14
0.91
0.54
0.11
-0.27
-0.53
-0.61
-0.57
-0.46
-0.36
-0.28
-0.19
-0.02
0.22
0.46
0.61
0.54
0.26
-0.12
-0.43
-0.54
-0.44
-0.24
-0.13
-0.23
-0.54
-0.92
-1.18
-1.17
-0.85
-0.33
0.25
0.73
1.04
1.17
1.15
1.03
0.82
0.53
0.17
-0.22
-0.58
-0.81
-0.88
-0.78
-0.61
-0.46
-0.39
-0.42
-0.45
-0.42
-0.27
-0.03
0.22
0.37
0.39
0.31
0.20
0.16
0.19
0.23
0.20
0.04
-0.21
-0.44
-0.51
-0.34
0.02
0.42
0.64
0.57
0.22
-0.24
-0.58
-0.63
-0.42
-0.11
0.11
0.11
-0.09
-0.32
-0.38
-0.20
0.16
0.52
0.68
0.57
0.25
-0.10
-0.30
-0.26
-0.01
0.32
0.60
0.74
0.71
0.55
0.31
0.09
-0.08
-0.17
-0.14
-0.03
0.14
0.33
0.47
0.54
0.51
0.40
0.25
0.13
0.10
0.17
0.31
0.42
0.39
0.15
-0.28
-0.78
-1.20
-1.42
-1.42
-1.28
-1.05
-0.81
-0.52
-0.16
0.26
0.69
0.98
1.05
0.86
0.52
0.18
-0.04
-0.10
-0.04
0.05
0.09
0.10
0.08
0.09
0.12
0.17
0.20
0.22
0.24
0.26
0.27
0.21
0.04
-0.25
-0.59
-0.87
-1.00
-0.95
-0.75
-0.49
-0.22
0.06
0.33
0.60
0.81
0.88
0.73
0.41
0.02
-0.29
-0.41
-0.34
-0.18
-0.03
0.05
0.11
0.20
0.37
0.58
0.73
0.73
0.55
0.23
-0.12
-0.43
-0.63
-0.73
-0.76
-0.74
-0.68
-0.58
-0.41
-0.18
0.09
0.36
0.58
0.68
0.66
0.55
0.43
0.37
0.38
0.42
0.40
0.28
0.08
-0.14
-0.30
-0.35
-0.31
-0.23
-0.18
-0.23
-0.36
-0.53
-0.68
-0.76
-0.73
-0.61
-0.42
-0.21
-0.02
0.07
0.03
-0.16
-0.46
-0.78
-0.99
-0.98
-0.73
-0.31
0.12
0.42
0.49
0.38
0.20
0.08
0.11
0.26
0.49
0.71
0.90
1.03
1.09
1.02
0.75
0.26
-0.40
-1.06
-1.51
-1.59
-1.28
-0.70
-0.04
0.50
0.82
0.90
0.80
0.60
0.35
0.12
-0.02
0.01
0.25
0.65
1.11
1.44
1.51
1.28
0.82
0.27
-0.18
-0.43
-0.49
-0.43
-0.38
-0.44
-0.60
-0.82
-0.99
-0.99
-0.80
-0.46
-0.05
0.31
0.56
0.65
0.58
0.36
0.04
-0.30
-0.59
-0.74
-0.70
-0.50
-0.19
0.13
0.41
0.60
0.71
0.77
0.80
0.77
0.64
0.34
-0.10
-0.60
-1.03
-1.23
-1.13
-0.77
-0.28
0.15
0.40
0.41
0.24
-0.01
-0.24
-0.36
-0.37
-0.29
-0.14
0.02
0.16
0.24
0.24
0.15
-0.04
-0.29
-0.55
-0.73
-0.75
-0.58
-0.24
0.16
0.53
0.79
0.88
0.83
0.64
0.33
-0.05
-0.45
-0.78
-0.97
-0.96
-0.80
-0.57
-0.36
-0.20
-0.06
0.10
0.27
0.39
0.41
0.28
0.05
-0.15
-0.22
-0.11
0.12
0.37
0.55
0.62
0.62
0.62
0.64
0.67
0.65
0.53
0.33
0.12
0.00
0.04
0.24
0.51
0.75
0.87
0.82
0.63
0.37
0.13
-0.06
-0.18
-0.26
-0.33
-0.40
-0.45
-0.49
-0.49
-0.46
-0.41
-0.36
-0.32
-0.29
-0.25
-0.19
-0.11
-0.06
-0.07
-0.16
-0.31
-0.48
-0.62
-0.68
-0.65
-0.51
-0.30
-0.06
0.19
0.38
0.47
0.44
0.26
-0.02
-0.37
-0.71
-0.96
-1.06
-0.98
-0.73
-0.36
0.05
0.42
0.68
0.77
0.69
0.46
0.17
-0.07
-0.17
-0.07
0.20
0.56
0.87
1.05
1.06
0.93
0.76
0.60
0.49
0.42
0.37
0.31
0.24
0.11
-0.05
-0.25
-0.45
-0.56
-0.51
-0.27
0.09
0.43
0.62
0.57
0.33
0.02
-0.22
-0.36
-0.45
-0.56
-0.75
-0.95
-1.05
-0.97
-0.70
-0.31
0.10
0.45
0.72
0.91
1.00
0.91
0.61
0.13
-0.36
-0.69
-0.72
-0.45
-0.02
0.38
0.63
0.71
0.69
0.66
0.63
0.57
0.44
0.22
-0.04
-0.27
-0.42
-0.52
-0.61
-0.71
-0.79
-0.77
-0.61
-0.35
-0.08
0.09
0.10
-0.02
-0.16
-0.24
-0.24
-0.19
-0.14
-0.10
-0.03
0.14
0.41
0.70
0.88
0.86
0.62
0.26
-0.08
-0.31
-0.42
-0.50
-0.60
-0.77
-0.93
-0.97
-0.82
-0.48
-0.07
0.26
0.40
0.31
0.04
-0.30
-0.60
-0.80
-0.87
-0.84
-0.73
-0.54
-0.30
-0.04
0.22
0.41
0.49
0.46
0.34
0.20
0.16
0.28
0.56
0.92
1.23
1.41
1.40
1.25
0.99
0.67
0.33
-0.01
-0.27
-0.36
-0.23
0.08
0.45
0.70
0.68
0.38
-0.06
-0.46
-0.66
-0.65
-0.51
-0.41
-0.41
-0.50
-0.58
-0.54
-0.37
-0.10
0.17
0.41
0.57
0.63
0.55
0.29
-0.16
-0.73
-1.24
-1.50
-1.40
-1.01
-0.52
-0.13
0.06
0.13
0.23
0.45
0.77
1.04
1.08
0.82
0.32
-0.24
-0.66
-0.80
-0.67
-0.39
-0.10
0.12
0.24
0.32
0.39
0.46
0.48
0.38
0.11
-0.29
-0.68
-0.92
-0.90
-0.64
-0.28
-0.03
-0.02
-0.23
-0.54
-0.74
-0.71
-0.45
-0.11
0.16
0.28
0.31
0.37
0.54
0.77
0.92
0.84
0.50
-0.02
-0.51
-0.79
-0.81
-0.64
-0.41
-0.26
-0.20
-0.18
-0.11
0.06
0.31
0.55
0.72
0.77
0.72
0.64
0.60
0.62
0.69
0.76
0.77
0.69
0.55
0.39
0.27
0.22
0.23
0.25
0.23
0.13
-0.03
-0.18
-0.27
-0.24
-0.11
0.04
0.16
0.19
0.13
0.03
-0.07
-0.11
-0.09
-0.00
0.14
0.32
0.51
0.66
0.74
0.71
0.57
0.32
0.01
-0.32
-0.59
-0.76
-0.83
-0.80
-0.74
-0.69
-0.70
-0.76
-0.86
-0.95
-1.00
-1.00
-0.93
-0.81
-0.63
-0.39
-0.11
0.17
0.38
0.45
0.35
0.11
-0.20
-0.49
-0.66
-0.62
-0.37
0.03
0.44
0.72
0.78
0.63
0.36
0.13
-0.01
-0.08
-0.14
-0.27
-0.44
-0.54
-0.44
-0.08
0.45
0.95
1.24
1.20
0.89
0.45
0.07
-0.14
-0.14
0.02
0.22
0.38
0.43
0.33
0.10
-0.17
-0.42
-0.56
-0.55
-0.41
-0.19
0.00
0.11
0.08
-0.04
-0.19
-0.28
-0.24
-0.08
0.14
0.33
0.43
0.46
0.47
0.53
0.63
0.69
0.61
0.37
0.05
-0.20
-0.24
-0.06
0.23
0.44
0.43
0.18
-0.22
-0.55
-0.66
-0.47
-0.05
0.42
0.73
0.74
0.44
-0.08
-0.60
-0.94
-1.00
-0.81
-0.49
-0.20
-0.07
-0.09
-0.20
-0.29
-0.31
-0.22
-0.06
0.11
0.22
0.26
0.25
0.25
0.27
0.30
0.28
0.14
-0.11
-0.41
-0.62
-0.66
-0.50
-0.24
-0.04
-0.01
-0.17
-0.41
-0.57
-0.54
-0.32
-0.03
0.17
0.19
0.05
-0.15
-0.28
-0.25
-0.06
0.22
0.49
0.71
0.82
0.85
0.83
0.78
0.70
0.60
0.49
0.37
0.30
0.29
0.37
0.49
0.57
0.55
0.38
0.10
-0.18
-0.38
-0.44
-0.39
-0.33
-0.37
-0.59
-0.95
-1.36
-1.67
-1.77
-1.60
-1.18
-0.61
-0.03
0.44
0.72
0.85
0.85
0.81
0.75
0.68
0.58
0.42
0.22
0.01
-0.18
-0.30
-0.32
-0.24
-0.08
0.12
0.31
0.45
0.49
0.40
0.20
-0.08
-0.39
-0.69
-0.91
-1.03
-1.04
-0.91
-0.65
-0.24
0.30
0.86
1.30
1.46
1.22
0.63
-0.10
-0.69
-0.93
-0.76
-0.36
0.03
0.17
0.05
-0.21
-0.43
-0.47
-0.34
-0.16
-0.05
-0.01
0.00
0.08
0.24
0.42
0.48
0.35
0.04
-0.30
-0.48
-0.42
-0.14
0.21
0.43
0.42
0.19
-0.09
-0.28
-0.27
-0.10
0.12
0.25
0.25
0.18
0.14
0.20
0.34
0.48
0.53
0.47
0.34
0.24
0.25
0.35
0.50
0.61
0.60
0.49
0.32
0.17
0.11
0.17
0.34
0.55
0.67
0.61
0.32
-0.17
-0.77
-1.32
-1.70
-1.83
-1.69
-1.35
-0.93
-0.53
-0.25
-0.12
-0.13
-0.20
-0.27
-0.25
-0.11
0.11
0.33
0.46
0.48
0.38
0.25
0.14
0.10
0.10
0.11
0.10
0.10
0.15
0.27
0.42
0.52
0.53
0.47
0.46
0.57
0.83
1.13
1.29
1.14
0.65
-0.07
-0.77
-1.23
-1.36
-1.21
-0.91
-0.62
-0.41
-0.25
-0.10
0.13
0.42
0.70
0.90
0.97
0.91
0.74
0.52
0.26
-0.04
-0.37
-0.71
-1.00
-1.21
-1.28
-1.20
-0.99
-0.68
-0.34
-0.02
0.16
0.15
-0.07
-0.41
-0.74
-0.92
-0.85
-0.56
-0.18
0.14
0.30
0.27
0.12
-0.04
-0.11
-0.06
0.09
0.29
0.51
0.68
0.77
0.75
0.61
0.40
0.16
-0.03
-0.16
-0.25
-0.30
-0.32
-0.30
-0.19
-0.02
0.17
0.28
0.25
0.10
-0.05
-0.08
0.10
0.43
0.80
1.06
1.11
0.96
0.70
0.47
0.32
0.28
0.30
0.34
0.37
0.39
0.37
0.32
0.20
0.02
-0.21
-0.42
-0.58
-0.63
-0.61
-0.58
-0.62
-0.78
-1.01
-1.21
-1.27
-1.13
-0.82
-0.46
-0.21
-0.13
-0.21
-0.33
-0.34
-0.17
0.16
0.53
0.81
0.93
0.90
0.84
0.83
0.90
1.01
1.09
1.06
0.93
0.75
0.58
0.45
0.35
0.26
0.17
0.06
-0.07
-0.23
-0.42
-0.63
-0.82
-0.92
-0.86
-0.66
-0.36
-0.06
0.16
0.28
0.33
0.36
0.40
0.44
0.42
0.31
0.12
-0.09
-0.22
-0.22
-0.10
0.03
0.03
-0.15
-0.47
-0.80
-0.99
-0.94
-0.67
-0.28
0.13
0.47
0.67
0.71
0.60
0.35
0.03
-0.26
-0.43
-0.42
-0.29
-0.15
-0.11
-0.18
-0.29
-0.35
-0.30
-0.17
-0.06
-0.03
-0.11
-0.24
-0.33
-0.28
-0.07
0.24
0.54
0.72
0.66
0.39
-0.02
-0.40
-0.61
-0.59
-0.43
-0.24
-0.18
-0.26
-0.40
-0.46
-0.34
-0.05
0.30
0.55
0.61
0.45
0.16
-0.17
-0.44
-0.57
-0.56
-0.39
-0.11
0.22
0.52
0.71
0.76
0.68
0.56
0.47
0.45
0.48
0.46
0.33
0.08
-0.24
-0.55
-0.79
-0.92
-0.97
-0.95
-0.88
-0.72
-0.47
-0.16
0.12
0.28
0.28
0.22
0.22
0.38
0.69
1.04
1.25
1.17
0.78
0.19
-0.42
-0.87
-1.02
-0.87
-0.49
-0.02
0.40
0.68
0.79
0.75
0.59
0.33
-0.05
-0.50
-0.94
-1.21
-1.18
-0.80
-0.21
0.35
0.61
0.46
-0.02
-0.61
-1.02
-1.10
-0.85
-0.42
-0.03
0.17
0.15
-0.02
-0.24
-0.38
-0.40
-0.32
-0.18
-0.07
-0.01
0.01
0.06
0.20
0.49
0.87
1.24
1.47
1.49
1.32
1.05
0.78
0.57
0.40
0.21
-0.02
-0.24
-0.37
-0.37
-0.24
-0.08
0.03
0.08
0.10
0.17
0.29
0.39
0.40
0.25
0.00
-0.26
-0.45
-0.52
-0.50
-0.44
-0.39
-0.33
-0.23
-0.09
0.05
0.10
0.02
-0.18
-0.41
-0.55
-0.52
-0.33
-0.05
0.18
0.29
0.26
0.17
0.13
0.24
0.51
0.83
1.05
1.04
0.77
0.35
-0.10
-0.42
-0.58
-0.61
-0.57
-0.52
-0.44
-0.29
-0.08
0.12
0.20
0.08
-0.19
-0.48
-0.64
-0.59
-0.36
-0.11
0.05
0.08
0.03
-0.00
0.06
0.21
0.37
0.46
0.49
0.51
0.58
0.69
0.78
0.73
0.49
0.11
-0.27
-0.49
-0.46
-0.23
0.04
0.18
0.08
-0.23
-0.62
-0.94
-1.07
-0.97
-0.69
-0.36
-0.04
0.19
0.37
0.50
0.59
0.63
0.60
0.49
0.33
0.19
0.09
0.01
-0.10
-0.29
-0.52
-0.72
-0.80
-0.73
-0.56
-0.40
-0.33
-0.34
-0.41
-0.46
-0.47
-0.47
-0.49
-0.52
-0.52
-0.40
-0.10
0.36
0.90
1.38
1.65
1.63
1.32
0.80
0.24
-0.24
-0.54
-0.65
-0.62
-0.49
-0.30
-0.06
0.22
0.51
0.74
0.83
0.73
0.45
0.09
-0.23
-0.41
-0.42
-0.31
-0.16
-0.06
-0.01
0.04
0.15
0.32
0.48
0.54
0.44
0.20
-0.07
-0.24
-0.25
-0.14
-0.00
0.07
0.02
-0.13
-0.33
-0.54
-0.72
-0.85
-0.91
-0.86
-0.71
-0.48
-0.24
-0.04
0.10
0.20
0.33
0.51
0.71
0.86
0.91
0.80
0.59
0.34
0.12
-0.03
-0.09
-0.11
-0.12
-0.13
-0.16
-0.19
-0.23
-0.27
-0.32
-0.37
-0.42
-0.45
-0.48
-0.53
-0.61
-0.72
-0.81
-0.76
-0.53
-0.14
0.26
0.49
0.41
0.10
-0.27
-0.45
-0.31
0.11
0.60
0.94
1.00
0.81
0.55
0.39
0.42
0.65
0.96
1.25
1.39
1.31
1.00
0.54
0.07
-0.28
-0.44
-0.44
-0.39
-0.39
-0.46
-0.53
-0.50
-0.28
0.06
0.40
0.57
0.51
0.28
0.04
-0.08
-0.01
0.18
0.37
0.46
0.39
0.19
-0.12
-0.51
-0.96
-1.38
-1.70
-1.80
-1.60
-1.14
-0.53
0.03
0.41
0.51
0.36
0.03
-0.35
-0.66
-0.79
-0.68
-0.34
0.14
0.62
0.94
1.00
0.81
0.47
0.09
-0.23
-0.44
-0.54
-0.57
-0.52
-0.37
-0.10
0.27
0.64
0.92
1.00
0.87
0.59
0.30
0.14
0.22
0.54
0.98
1.37
1.55
1.42
1.00
0.41
-0.22
-0.74
-1.09
-1.24
-1.24
-1.14
-0.97
-0.74
-0.49
-0.24
-0.05
0.06
0.09
0.06
0.03
-0.01
-0.06
-0.12
-0.18
-0.19
-0.11
0.06
0.28
0.46
0.51
0.45
0.31
0.16
0.05
-0.01
-0.04
-0.06
-0.11
-0.15
-0.19
-0.21
-0.23
-0.23
-0.20
-0.10
0.08
0.34
0.60
0.78
0.80
0.61
0.27
-0.13
-0.48
-0.71
-0.80
-0.78
-0.68
-0.53
-0.33
-0.14
-0.02
-0.02
-0.16
-0.37
-0.51
-0.47
-0.23
0.11
0.36
0.39
0.17
-0.16
-0.41
-0.43
-0.21
0.13
0.43
0.57
0.53
0.38
0.20
0.08
0.04
0.04
0.07
0.08
0.07
0.02
-0.02
-0.02
0.08
0.28
0.52
0.73
0.81
0.70
0.43
0.07
-0.23
-0.36
-0.25
0.06
0.48
0.88
1.11
1.08
0.78
0.30
-0.23
-0.68
-0.98
-1.13
-1.14
-1.05
-0.83
-0.47
0.00
0.50
0.89
1.06
0.97
0.63
0.14
-0.41
-0.94
-1.36
-1.61
-1.64
-1.42
-1.02
-0.56
-0.19
-0.02
-0.08
-0.30
-0.53
-0.65
-0.58
-0.33
0.05
0.45
0.77
0.95
0.94
0.79
0.57
0.36
0.26
0.28
0.41
0.57
0.66
0.65
0.54
0.41
0.31
0.29
0.30
0.29
0.17
-0.03
-0.26
-0.42
-0.43
-0.28
-0.04
0.18
0.29
0.23
0.02
-0.29
-0.59
-0.83
-0.95
-0.93
-0.81
-0.62
-0.41
-0.23
-0.13
-0.11
-0.16
-0.23
-0.27
-0.25
-0.16
-0.01
0.18
0.37
0.52
0.63
0.70
0.75
0.79
0.84
0.89
0.89
0.82
0.63
0.34
0.01
-0.25
-0.35
-0.25
0.02
0.34
0.58
0.64
0.50
0.22
-0.07
-0.28
-0.37
-0.41
-0.51
-0.73
-1.06
-1.41
-1.63
-1.62
-1.37
-0.92
-0.38
0.15
0.59
0.87
0.96
0.82
0.52
0.16
-0.13
-0.21
-0.05
0.28
0.63
0.87
0.90
0.74
0.48
0.20
-0.01
-0.16
-0.26
-0.35
-0.44
-0.49
-0.47
-0.37
-0.22
-0.04
0.12
0.22
0.20
0.06
-0.20
-0.52
-0.79
-0.86
-0.68
-0.27
0.23
0.64
0.82
0.74
0.51
0.27
0.13
0.08
0.04
-0.09
-0.34
-0.63
-0.79
-0.72
-0.42
0.00
0.34
0.45
0.33
0.09
-0.11
-0.15
-0.05
0.07
0.12
0.08
0.02
0.03
0.17
0.40
0.60
0.68
0.62
0.44
0.19
-0.06
-0.29
-0.46
-0.54
-0.51
-0.38
-0.20
-0.03
0.06
0.09
0.08
0.09
0.16
0.28
0.43
0.55
0.61
0.60
0.54
0.44
0.34
0.24
0.13
-0.03
-0.25
-0.50
-0.70
-0.75
-0.59
-0.25
0.17
0.52
0.68
0.60
0.34
0.01
-0.26
-0.41
-0.44
-0.38
-0.29
-0.19
-0.08
0.04
0.17
0.27
0.30
0.25
0.16
0.07
0.06
0.16
0.31
0.42
0.41
0.26
0.05
-0.13
-0.23
-0.20
-0.12
-0.02
0.08
0.17
0.28
0.38
0.42
0.34
0.12
-0.18
-0.45
-0.59
-0.56
-0.40
-0.23
-0.12
-0.11
-0.18
-0.25
-0.29
-0.27
-0.22
-0.17
-0.17
-0.21
-0.27
-0.33
-0.39
-0.45
-0.49
-0.51
-0.50
-0.43
-0.34
-0.30
-0.36
-0.56
-0.84
-1.07
-1.07
-0.77
-0.20
0.46
1.00
1.26
1.22
1.00
0.74
0.50
0.30
0.10
-0.12
-0.32
-0.39
-0.26
0.05
0.45
0.81
1.03
1.08
1.02
0.91
0.78
0.62
0.41
0.13
-0.17
-0.44
-0.62
-0.62
-0.46
-0.18
0.14
0.39
0.49
0.43
0.25
0.02
-0.19
-0.36
-0.50
-0.59
-0.59
-0.44
-0.11
0.33
0.75
0.95
0.83
0.41
-0.17
-0.74
-1.13
-1.29
-1.23
-1.02
-0.69
-0.27
0.16
0.53
0.75
0.77
0.59
0.32
0.08
-0.00
0.10
0.34
0.60
0.76
0.70
0.43
0.03
-0.35
-0.56
-0.53
-0.31
0.01
0.26
0.36
0.34
0.26
0.21
0.22
0.25
0.24
0.19
0.11
0.06
0.07
0.11
0.13
0.04
-0.16
-0.43
-0.67
-0.81
-0.82
-0.71
-0.54
-0.38
-0.26
-0.17
-0.09
0.00
0.10
0.18
0.21
0.16
0.03
-0.15
-0.31
-0.38
-0.33
-0.17
0.06
0.30
0.52
0.71
0.85
0.93
0.90
0.74
0.42
-0.01
-0.47
-0.81
-0.90
-0.69
-0.22
0.39
0.97
1.34
1.42
1.21
0.80
0.29
-0.21
-0.62
-0.91
-1.08
-1.14
-1.14
-1.13
-1.11
-1.06
-0.91
-0.64
-0.28
0.06
0.25
0.23
0.02
-0.25
-0.44
-0.47
-0.38
-0.27
-0.27
-0.39
-0.52
-0.52
-0.28
0.18
0.71
1.13
1.30
1.21
0.97
0.72
0.58
0.58
0.66
0.73
0.73
0.63
0.48
0.31
0.19
0.17
0.25
0.39
0.52
0.57
0.48
0.26
-0.00
-0.21
-0.29
-0.24
-0.16
-0.13
-0.19
-0.31
-0.39
-0.36
-0.24
-0.12
-0.09
-0.18
-0.30
-0.34
-0.21
0.05
0.31
0.40
0.21
-0.19
-0.64
-0.93
-0.94
-0.67
-0.20
0.29
0.64
0.74
0.58
0.26
-0.07
-0.26
-0.31
-0.27
-0.27
-0.36
-0.47
-0.45
-0.19
0.30
0.80
1.06
0.90
0.35
-0.37
-0.96
-1.21
-1.10
-0.76
-0.41
-0.22
-0.25
-0.45
-0.68
-0.81
-0.76
-0.53
-0.21
0.07
0.21
0.20
0.12
0.08
0.13
0.27
0.41
0.49
0.53
0.55
0.63
0.76
0.87
0.89
0.74
0.48
0.18
-0.08
-0.26
-0.34
-0.36
-0.31
-0.20
-0.05
0.10
0.16
0.09
-0.09
-0.32
-0.48
-0.53
-0.49
-0.42
-0.36
-0.30
-0.20
-0.01
0.21
0.38
0.42
0.26
-0.02
-0.30
-0.46
-0.38
-0.10
0.29
0.62
0.75
0.63
0.30
-0.11
-0.44
-0.59
-0.56
-0.44
-0.35
-0.36
-0.45
-0.52
-0.46
-0.23
0.14
0.53
0.83
0.91
0.78
0.50
0.21
-0.00
-0.09
-0.08
-0.05
-0.04
-0.03
0.03
0.17
0.35
0.47
0.41
0.18
-0.15
-0.43
-0.53
-0.42
-0.19
0.01
0.10
0.07
0.03
0.06
0.24
0.53
0.84
1.05
1.08
0.92
0.63
0.31
0.05
-0.09
-0.15
-0.20
-0.31
-0.50
-0.70
-0.82
-0.77
-0.51
-0.13
0.24
0.46
0.46
0.27
0.01
-0.21
-0.32
-0.32
-0.30
-0.32
-0.38
-0.41
-0.31
-0.03
0.35
0.70
0.85
0.71
0.33
-0.13
-0.52
-0.75
-0.80
-0.74
-0.65
-0.56
-0.48
-0.39
-0.29
-0.20
-0.14
-0.12
-0.09
-0.01
0.16
0.44
0.76
1.03
1.16
1.09
0.85
0.52
0.19
-0.06
-0.17
-0.15
-0.03
0.15
0.29
0.33
0.21
-0.07
-0.43
-0.76
-0.96
-0.97
-0.84
-0.65
-0.47
-0.34
-0.26
-0.17
-0.04
0.14
0.34
0.50
0.58
0.55
0.40
0.15
-0.16
-0.44
-0.61
-0.59
-0.31
0.17
0.76
1.32
1.71
1.86
1.76
1.43
0.94
0.40
-0.10
-0.46
-0.66
-0.74
-0.79
-0.87
-1.01
-1.14
-1.17
-1.07
-0.87
-0.68
-0.57
-0.58
-0.62
-0.60
-0.49
-0.29
-0.08
0.06
0.11
0.06
-0.05
-0.20
-0.37
-0.50
-0.55
-0.44
-0.18
0.19
0.55
0.75
0.75
0.57
0.37
0.29
0.43
0.75
1.12
1.36
1.38
1.15
0.76
0.33
-0.01
-0.20
-0.22
-0.11
0.09
0.30
0.45
0.51
0.44
0.25
0.01
-0.21
-0.30
-0.21
0.04
0.37
0.65
0.77
0.64
0.28
-0.22
-0.74
-1.18
-1.46
-1.55
-1.47
-1.28
-1.04
-0.83
-0.68
-0.58
-0.47
-0.30
-0.07
0.17
0.34
0.34
0.14
-0.20
-0.59
-0.86
-0.91
-0.70
-0.25
0.36
0.99
1.50
1.76
1.72
1.41
0.92
0.39
-0.04
-0.29
-0.30
-0.13
0.17
0.48
0.69
0.73
0.56
0.22
-0.21
-0.62
-0.91
-1.04
-1.01
-0.85
-0.60
-0.34
-0.10
0.09
0.23
0.32
0.39
0.46
0.53
0.57
0.54
0.46
0.34
0.20
0.10
0.05
0.04
0.05
0.04
-0.01
-0.10
-0.24
-0.41
-0.58
-0.72
-0.76
-0.72
-0.64
-0.59
-0.60
-0.67
-0.71
-0.62
-0.36
0.03
0.43
0.69
0.72
0.55
0.28
0.04
-0.06
-0.01
0.13
0.28
0.33
0.27
0.13
0.01
0.02
0.22
0.60
1.04
1.37
1.43
1.17
0.67
0.08
-0.39
-0.62
-0.59
-0.41
-0.19
-0.04
0.05
0.16
0.38
0.72
1.08
1.30
1.22
0.78
0.08
-0.66
-1.20
-1.38
-1.18
-0.74
-0.25
0.11
0.24
0.13
-0.13
-0.45
-0.73
-0.89
-0.86
-0.65
-0.28
0.12
0.39
0.44
0.24
-0.11
-0.49
-0.76
-0.87
-0.82
-0.66
-0.46
-0.27
-0.14
-0.10
-0.18
-0.35
-0.52
-0.61
-0.55
-0.33
-0.03
0.26
0.44
0.47
0.36
0.14
-0.14
-0.42
-0.66
-0.78
-0.73
-0.50
-0.10
0.40
0.90
1.27
1.45
1.40
1.15
0.80
0.45
0.18
0.02
-0.05
-0.06
-0.04
0.03
0.17
0.35
0.51
0.56
0.45
0.22
0.01
-0.02
0.20
0.56
0.83
0.79
0.40
-0.20
-0.73
-0.96
-0.82
-0.46
-0.14
-0.04
-0.18
-0.42
-0.55
-0.46
-0.20
0.08
0.21
0.14
-0.03
-0.17
-0.19
-0.13
-0.11
-0.23
-0.52
-0.83
-0.99
-0.88
-0.53
-0.09
0.25
0.36
0.26
0.03
-0.21
-0.37
-0.40
-0.30
-0.07
0.28
0.70
1.10
1.38
1.46
1.31
1.01
0.63
0.29
0.03
-0.13
-0.21
-0.24
-0.22
-0.15
-0.05
0.11
0.30
0.48
0.60
0.61
0.50
0.30
0.04
-0.21
-0.43
-0.62
-0.78
-0.90
-0.95
-0.87
-0.65
-0.34
-0.03
0.19
0.26
0.20
0.07
-0.05
-0.09
-0.03
0.12
0.30
0.47
0.53
0.45
0.21
-0.11
-0.38
-0.49
-0.35
0.03
0.50
0.91
1.10
0.99
0.60
0.04
-0.53
-0.97
-1.17
-1.12
-0.89
-0.58
-0.27
-0.02
0.18
0.30
0.32
0.17
-0.17
-0.63
-1.09
-1.36
-1.30
-0.91
-0.30
0.32
0.73
0.81
0.58
0.18
-0.20
-0.39
-0.31
0.01
0.44
0.84
1.08
1.14
1.07
0.93
0.79
0.62
0.38
0.06
-0.30
-0.60
-0.71
-0.60
-0.30
0.05
0.31
0.37
0.23
-0.04
-0.32
-0.53
-0.63
-0.64
-0.62
-0.60
-0.58
-0.54
-0.44
-0.26
0.01
0.34
0.67
0.93
1.06
1.05
0.93
0.74
0.56
0.40
0.29
0.19
0.10
0.01
-0.07
-0.14
-0.20
-0.23
-0.25
-0.25
-0.25
-0.27
-0.35
-0.51
-0.74
-0.96
-1.08
-1.00
-0.70
-0.24
0.26
0.68
0.93
1.00
0.93
0.80
0.68
0.59
0.52
0.42
0.21
-0.08
-0.42
-0.72
-0.87
-0.84
-0.64
-0.35
-0.05
0.18
0.27
0.24
0.09
-0.14
-0.40
-0.61
-0.73
-0.70
-0.55
-0.34
-0.16
-0.08
-0.09
-0.11
-0.07
0.05
0.23
0.39
0.44
0.39
0.27
0.19
0.20
0.33
0.55
0.81
1.03
1.13
1.07
0.80
0.33
-0.22
-0.72
-0.99
-0.94
-0.59
-0.04
0.54
1.00
1.23
1.17
0.87
0.38
-0.18
-0.68
-1.02
-1.18
-1.20
-1.17
-1.16
-1.19
-1.22
-1.17
-0.95
-0.53
0.01
0.56
0.97
1.12
0.99
0.66
0.27
-0.03
-0.14
-0.10
-0.02
-0.02
-0.15
-0.35
-0.51
-0.52
-0.38
-0.14
0.07
0.18
0.18
0.14
0.14
0.24
0.42
0.62
0.75
0.74
0.60
0.41
0.27
0.28
0.43
0.62
0.71
0.58
0.23
-0.22
-0.59
-0.77
-0.76
-0.64
-0.51
-0.38
-0.17
0.20
0.74
1.30
1.65
1.63
1.23
0.61
0.00
-0.40
-0.53
-0.48
-0.39
-0.34
-0.36
-0.39
-0.41
-0.39
-0.39
-0.42
-0.48
-0.52
-0.52
-0.49
-0.48
-0.52
-0.61
-0.70
-0.71
-0.61
-0.40
-0.18
-0.02
0.04
0.03
0.02
0.06
0.20
0.40
0.61
0.75
0.75
0.56
0.21
-0.21
-0.59
-0.82
-0.82
-0.62
-0.30
0.01
0.23
0.31
0.28
0.22
0.17
0.16
0.16
0.14
0.06
-0.04
-0.11
-0.08
0.07
0.28
0.46
0.48
0.30
-0.05
-0.44
-0.73
-0.83
-0.72
-0.45
-0.14
0.11
0.25
0.27
0.24
0.20
0.19
0.20
0.21
0.22
0.24
0.30
0.39
0.51
0.61
0.67
0.70
0.72
0.76
0.82
0.86
0.83
0.70
0.47
0.17
-0.15
-0.45
-0.68
-0.83
-0.88
-0.83
-0.69
-0.51
-0.35
-0.25
-0.21
-0.16
-0.04
0.19
0.48
0.71
0.76
0.57
0.22
-0.11
-0.23
-0.07
0.28
0.64
0.81
0.71
0.41
0.03
-0.29
-0.51
-0.64
-0.74
-0.84
-0.91
-0.93
-0.89
-0.81
-0.72
-0.66
-0.61
-0.52
-0.37
-0.16
0.07
0.25
0.29
0.19
-0.02
-0.24
-0.36
-0.32
-0.09
0.25
0.60
0.85
0.93
0.84
0.61
0.29
-0.06
-0.38
-0.59
-0.65
-0.53
-0.27
0.07
0.37
0.53
0.53
0.39
0.22
0.10
0.09
0.16
0.26
0.32
0.34
0.32
0.30
0.25
0.12
-0.16
-0.56
-0.96
-1.21
-1.20
-0.91
-0.47
-0.03
0.30
0.46
0.49
0.45
0.38
0.28
0.16
0.04
-0.00
0.07
0.26
0.51
0.73
0.84
0.79
0.63
0.44
0.28
0.19
0.15
0.08
-0.09
-0.39
-0.75
-1.05
-1.18
-1.09
-0.85
-0.59
-0.43
-0.38
-0.40
-0.36
-0.21
0.04
0.27
0.40
0.39
0.29
0.21
0.24
0.38
0.53
0.60
0.52
0.29
-0.01
-0.30
-0.49
-0.55
-0.50
-0.33
-0.06
0.29
0.66
0.94
1.05
0.91
0.57
0.13
-0.28
-0.54
-0.59
-0.46
-0.20
0.12
0.44
0.70
0.84
0.79
0.56
0.18
-0.27
-0.66
-0.92
-1.02
-0.97
-0.82
-0.62
-0.41
-0.22
-0.04
0.11
0.26
0.36
0.41
0.38
0.28
0.17
0.09
0.08
0.12
0.13
0.09
-0.02
-0.13
-0.14
-0.01
0.24
0.46
0.52
0.35
-0.03
-0.49
-0.88
-1.08
-1.09
-1.00
-0.92
-0.93
-1.02
-1.11
-1.10
-0.93
-0.65
-0.33
-0.09
0.06
0.18
0.35
0.67
1.08
1.49
1.71
1.65
1.33
0.87
0.45
0.23
0.21
0.35
0.52
0.60
0.56
0.41
0.19
-0.06
-0.33
-0.62
-0.89
-1.08
-1.11
-0.91
-0.51
-0.02
0.37
0.53
0.41
0.08
-0.26
-0.44
-0.37
-0.10
0.21
0.38
0.33
0.13
-0.10
-0.20
-0.12
0.11
0.38
0.59
0.68
0.64
0.49
0.24
-0.11
-0.51
-0.89
-1.11
-1.05
-0.64
0.05
0.85
1.51
1.85
1.78
1.33
0.65
-0.07
-0.69
-1.08
-1.21
-1.08
-0.71
-0.20
0.32
0.73
0.89
0.77
0.39
-0.12
-0.61
-0.94
-1.05
-0.94
-0.68
-0.35
-0.05
0.17
0.26
0.26
0.21
0.19
0.25
0.40
0.59
0.72
0.73
0.60
0.36
0.13
-0.01
-0.03
0.02
0.05
0.01
-0.08
-0.19
-0.26
-0.30
-0.36
-0.44
-0.52
-0.53
-0.41
-0.14
0.18
0.44
0.54
0.48
0.31
0.12
-0.03
-0.16
-0.29
-0.46
-0.63
-0.74
-0.75
-0.63
-0.45
-0.24
-0.08
0.03
0.10
0.17
0.25
0.34
0.40
0.37
0.23
0.03
-0.20
-0.36
-0.41
-0.34
-0.19
-0.01
0.16
0.28
0.34
0.36
0.34
0.28
0.18
0.05
-0.07
-0.12
-0.10
0.00
0.15
0.30
0.44
0.54
0.60
0.60
0.56
0.49
0.42
0.40
0.41
0.42
0.39
0.28
0.09
-0.16
-0.41
-0.63
-0.81
-0.96
-1.08
-1.14
-1.16
-1.13
-1.09
-1.04
-0.96
-0.77
-0.44
0.02
0.50
0.88
1.07
1.02
0.80
0.50
0.25
0.11
0.10
0.16
0.22
0.18
0.01
-0.28
-0.56
-0.69
-0.55
-0.16
0.38
0.85
1.12
1.14
1.00
0.82
0.68
0.58
0.44
0.23
-0.02
-0.20
-0.20
-0.03
0.20
0.31
0.18
-0.15
-0.56
-0.82
-0.83
-0.61
-0.31
-0.10
-0.10
-0.29
-0.55
-0.77
-0.88
-0.87
-0.79
-0.68
-0.56
-0.43
-0.29
-0.18
-0.14
-0.14
-0.12
0.01
0.32
0.74
1.13
1.33
1.21
0.83
0.33
-0.09
-0.28
-0.23
-0.03
0.18
0.31
0.31
0.20
0.07
-0.02
-0.03
0.03
0.14
0.21
0.21
0.14
0.03
-0.05
-0.05
0.01
0.09
0.12
0.06
-0.10
-0.28
-0.39
-0.40
-0.30
-0.15
-0.01
0.06
0.08
0.09
0.12
0.18
0.22
0.22
0.16
0.10
0.11
0.22
0.42
0.62
0.72
0.65
0.45
0.18
-0.09
-0.31
-0.49
-0.62
-0.69
-0.65
-0.47
-0.20
0.10
0.29
0.30
0.12
-0.18
-0.48
-0.69
-0.75
-0.69
-0.53
-0.29
-0.00
0.28
0.51
0.62
0.57
0.39
0.15
-0.04
-0.12
-0.09
-0.01
0.05
0.03
-0.06
-0.15
-0.19
-0.17
-0.14
-0.17
-0.28
-0.41
-0.47
-0.37
-0.09
0.28
0.61
0.79
0.77
0.61
0.36
0.12
-0.10
-0.27
-0.38
-0.40
-0.35
-0.27
-0.24
-0.30
-0.46
-0.64
-0.75
-0.73
-0.61
-0.47
-0.39
-0.35
-0.30
-0.16
0.11
0.44
0.71
0.81
0.71
0.48
0.23
0.05
-0.05
-0.11
-0.17
-0.23
-0.25
-0.17
0.01
0.23
0.44
0.58
0.65
0.65
0.60
0.47
0.26
0.01
-0.23
-0.33
-0.26
0.01
0.37
0.72
0.93
0.95
0.79
0.51
0.18
-0.13
-0.38
-0.51
-0.53
-0.43
-0.28
-0.17
-0.17
-0.31
-0.51
-0.70
-0.80
-0.84
-0.83
-0.80
-0.75
-0.61
-0.34
0.04
0.46
0.81
1.02
1.11
1.12
1.09
1.04
0.88
0.58
0.14
-0.34
-0.71
-0.82
-0.66
-0.28
0.21
0.69
1.06
1.30
1.38
1.31
1.11
0.82
0.49
0.17
-0.10
-0.34
-0.56
-0.75
-0.86
-0.81
-0.57
-0.21
0.13
0.31
0.26
-0.01
-0.37
-0.71
-0.97
-1.13
-1.20
-1.18
-1.05
-0.82
-0.56
-0.36
-0.29
-0.35
-0.45
-0.49
-0.39
-0.15
0.11
0.32
0.40
0.34
0.20
0.05
-0.04
-0.03
0.09
0.25
0.36
0.34
0.16
-0.11
-0.33
-0.38
-0.23
0.05
0.30
0.41
0.34
0.16
0.00
-0.05
0.02
0.14
0.24
0.24
0.14
-0.04
-0.27
-0.49
-0.66
-0.73
-0.65
-0.42
-0.08
0.31
0.66
0.88
0.90
0.69
0.28
-0.25
-0.71
-0.93
-0.83
-0.44
0.07
0.50
0.69
0.61
0.32
-0.02
-0.30
-0.40
-0.31
-0.03
0.39
0.85
1.22
1.39
1.32
1.02
0.63
0.27
0.00
-0.14
-0.21
-0.23
-0.20
-0.09
0.08
0.26
0.36
0.34
0.21
0.09
0.08
0.24
0.52
0.76
0.78
0.52
0.04
-0.47
-0.82
-0.92
-0.81
-0.61
-0.45
-0.37
-0.35
-0.34
-0.30
-0.25
-0.21
-0.19
-0.20
-0.22
-0.22
-0.17
-0.06
0.13
0.35
0.53
0.57
0.43
0.12
-0.25
-0.51
-0.56
-0.39
-0.09
0.20
0.38
0.42
0.38
0.32
0.28
0.23
0.11
-0.13
-0.48
-0.86
-1.14
-1.22
-1.06
-0.72
-0.32
0.01
0.21
0.26
0.17
-0.00
-0.20
-0.39
-0.50
-0.50
-0.41
-0.28
-0.22
-0.27
-0.43
-0.59
-0.65
-0.53
-0.27
0.05
0.33
0.52
0.64
0.71
0.76
0.80
0.79
0.72
0.63
0.57
0.55
0.59
0.64
0.67
0.66
0.64
0.63
0.68
0.77
0.87
0.89
0.77
0.46
-0.02
-0.57
-1.05
-1.31
-1.29
-1.03
-0.63
-0.26
-0.04
-0.02
-0.19
-0.46
-0.73
-0.90
-0.95
-0.83
-0.58
-0.24
0.12
0.39
0.48
0.35
0.04
-0.33
-0.60
-0.64
-0.41
0.01
0.44
0.73
0.79
0.62
0.31
-0.03
-0.30
-0.43
-0.39
-0.18
0.15
0.51
0.77
0.84
0.66
0.32
-0.07
-0.34
-0.42
-0.30
-0.06
0.20
0.36
0.39
0.28
0.09
-0.10
-0.22
-0.23
-0.17
-0.09
-0.06
-0.08
-0.12
-0.10
0.02
0.22
0.39
0.45
0.34
0.07
-0.24
-0.48
-0.58
-0.56
-0.45
-0.31
-0.13
0.14
0.51
0.96
1.39
1.64
1.61
1.30
0.81
0.30
-0.07
-0.22
-0.17
-0.01
0.15
0.20
0.12
-0.10
-0.43
-0.77
-1.05
-1.19
-1.16
-0.98
-0.72
-0.47
-0.32
-0.29
-0.32
-0.34
-0.28
-0.13
0.10
0.32
0.47
0.52
0.48
0.37
0.20
-0.01
-0.24
-0.44
-0.54
-0.47
-0.20
0.20
0.58
0.79
0.75
0.46
0.06
-0.28
-0.42
-0.33
-0.06
0.23
0.44
0.47
0.37
0.21
0.05
-0.06
-0.12
-0.16
-0.20
-0.25
-0.31
-0.34
-0.34
-0.31
-0.22
-0.09
0.09
0.28
0.43
0.47
0.39
0.18
-0.08
-0.32
-0.47
-0.49
-0.40
-0.21
0.03
0.26
0.41
0.42
0.27
-0.02
-0.36
-0.61
-0.68
-0.54
-0.28
-0.05
0.04
-0.07
-0.29
-0.47
-0.48
-0.29
-0.01
0.19
0.19
0.04
-0.11
-0.10
0.16
0.56
0.88
0.91
0.59
0.07
-0.42
-0.65
-0.54
-0.19
0.17
0.34
0.26
-0.02
-0.31
-0.47
-0.42
-0.20
0.07
0.28
0.37
0.38
0.37
0.42
0.59
0.80
0.98
1.02
0.86
0.49
0.01
-0.46
-0.79
-0.89
-0.78
-0.53
-0.26
-0.09
-0.07
-0.20
-0.40
-0.59
-0.70
-0.67
-0.50
-0.17
0.27
0.77
1.23
1.52
1.54
1.26
0.78
0.25
-0.17
-0.37
-0.35
-0.23
-0.09
-0.02
-0.02
-0.08
-0.16
-0.27
-0.39
-0.53
-0.64
-0.67
-0.62
-0.50
-0.37
-0.29
-0.25
-0.20
-0.09
0.11
0.37
0.59
0.66
0.56
0.31
0.03
-0.15
-0.18
-0.09
0.05
0.14
0.15
0.12
0.13
0.25
0.47
0.72
0.87
0.86
0.65
0.30
-0.09
-0.43
-0.66
-0.78
-0.83
-0.87
-0.93
-0.96
-0.90
-0.67
-0.27
0.25
0.75
1.09
1.19
1.01
0.59
0.03
-0.55
-1.04
-1.30
-1.27
-0.94
-0.42
0.08
0.37
0.37
0.13
-0.14
-0.27
-0.17
0.12
0.42
0.57
0.48
0.21
-0.11
-0.30
-0.30
-0.12
0.13
0.30
0.30
0.11
-0.21
-0.53
-0.72
-0.70
-0.49
-0.19
0.06
0.17
0.14
0.03
-0.04
-0.01
0.09
0.19
0.17
0.01
-0.21
-0.37
-0.35
-0.14
0.22
0.56
0.77
0.78
0.62
0.38
0.17
0.10
0.19
0.42
0.69
0.88
0.89
0.67
0.29
-0.13
-0.46
-0.61
-0.57
-0.40
-0.17
0.05
0.22
0.33
0.39
0.42
0.40
0.34
0.26
0.16
0.06
-0.05
-0.14
-0.24
-0.35
-0.47
-0.59
-0.68
-0.72
-0.69
-0.63
-0.58
-0.55
-0.51
-0.41
-0.20
0.10
0.38
0.53
0.50
0.33
0.14
0.08
0.17
0.34
0.47
0.43
0.25
-0.00
-0.18
-0.20
-0.06
0.17
0.38
0.50
0.50
0.38
0.16
-0.13
-0.41
-0.61
-0.66
-0.54
-0.25
0.11
0.44
0.66
0.73
0.64
0.43
0.18
-0.05
-0.19
-0.19
-0.09
0.04
0.12
0.08
-0.05
-0.21
-0.32
-0.33
-0.26
-0.17
-0.13
-0.16
-0.28
-0.45
-0.63
-0.77
-0.83
-0.78
-0.57
-0.25
0.12
0.43
0.62
0.66
0.61
0.53
0.44
0.35
0.21
0.02
-0.15
-0.22
-0.13
0.09
0.35
0.53
0.53
0.38
0.16
-0.04
-0.13
-0.14
-0.10
-0.10
-0.15
-0.24
-0.33
-0.34
-0.27
-0.15
-0.01
0.09
0.15
0.20
0.26
0.36
0.46
0.52
0.50
0.42
0.30
0.18
0.04
-0.12
-0.30
-0.46
-0.50
-0.36
-0.06
0.28
0.50
0.50
0.26
-0.15
-0.57
-0.88
-1.02
-1.01
-0.88
-0.70
-0.50
-0.31
-0.14
-0.03
-0.01
-0.10
-0.25
-0.42
-0.52
-0.49
-0.34
-0.07
0.23
0.48
0.63
0.64
0.54
0.39
0.27
0.25
0.36
0.55
0.73
0.81
0.75
0.60
0.44
0.34
0.32
0.31
0.22
0.02
-0.25
-0.46
-0.53
-0.43
-0.24
-0.09
-0.08
-0.24
-0.50
-0.71
-0.73
-0.52
-0.13
0.28
0.57
0.65
0.54
0.33
0.14
0.02
-0.01
-0.02
-0.06
-0.13
-0.19
-0.17
-0.04
0.15
0.31
0.31
0.12
-0.21
-0.56
-0.79
-0.81
-0.62
-0.29
0.04
0.29
0.40
0.39
0.33
0.27
0.25
0.26
0.28
0.27
0.20
0.07
-0.09
-0.21
-0.25
-0.19
-0.09
-0.01
-0.02
-0.12
-0.27
-0.37
-0.33
-0.15
0.11
0.32
0.39
0.30
0.10
-0.12
-0.25
-0.27
-0.18
-0.04
0.08
0.12
0.09
-0.01
-0.11
-0.20
-0.27
-0.32
-0.34
-0.32
-0.19
0.04
0.30
0.47
0.45
0.22
-0.11
-0.33
-0.29
0.02
0.48
0.88
1.05
0.98
0.73
0.45
0.22
0.05
-0.11
-0.30
-0.54
-0.79
-1.00
-1.10
-1.08
-0.94
-0.69
-0.36
-0.01
0.30
0.57
0.77
0.93
1.03
1.04
0.91
0.59
0.11
-0.42
-0.88
-1.10
-1.03
-0.70
-0.20
0.30
0.69
0.91
0.92
0.75
0.42
0.00
-0.40
-0.69
-0.76
-0.61
-0.31
0.01
0.19
0.16
-0.05
-0.33
-0.57
-0.66
-0.62
-0.47
-0.26
-0.01
0.28
0.59
0.83
0.93
0.83
0.57
0.29
0.13
0.16
0.35
0.56
0.65
0.55
0.34
0.12
0.02
0.05
0.11
0.12
0.04
-0.13
-0.29
-0.39
-0.38
-0.28
-0.14
-0.00
0.09
0.13
0.09
-0.02
-0.18
-0.35
-0.49
-0.60
-0.66
-0.68
-0.67
-0.63
-0.55
-0.40
-0.19
0.07
0.31
0.46
0.47
0.33
0.11
-0.09
-0.18
-0.13
0.02
0.16
0.22
0.19
0.09
-0.04
-0.15
-0.25
-0.34
-0.44
-0.52
-0.53
-0.44
-0.25
0.03
0.38
0.73
1.03
1.24
1.30
1.18
0.92
0.61
0.37
0.24
0.23
0.27
0.26
0.15
-0.04
-0.25
-0.38
-0.39
-0.29
-0.16
-0.08
-0.11
-0.28
-0.55
-0.85
-1.09
-1.21
-1.17
-0.97
-0.64
-0.22
0.19
0.56
0.84
0.97
0.97
0.83
0.59
0.28
-0.08
-0.46
-0.82
-1.10
-1.21
-1.08
-0.72
-0.26
0.15
0.34
0.27
0.02
-0.24
-0.38
-0.34
-0.15
0.07
0.25
0.41
0.57
0.78
1.01
1.20
1.23
1.07
0.77
0.44
0.20
0.11
0.13
0.16
0.13
-0.00
-0.18
-0.31
-0.29
-0.12
0.16
0.43
0.57
0.53
0.30
-0.09
-0.55
-1.00
-1.33
-1.47
-1.36
-1.01
-0.44
0.24
0.90
1.34
1.43
1.10
0.45
-0.30
-0.87
-1.04
-0.78
-0.25
0.27
0.54
0.48
0.22
-0.03
-0.08
0.08
0.32
0.44
0.31
-0.01
-0.33
-0.46
-0.33
-0.04
0.22
0.25
0.05
-0.26
-0.47
-0.47
-0.28
-0.10
-0.13
-0.44
-0.93
-1.35
-1.49
-1.28
-0.78
-0.19
0.35
0.77
1.08
1.28
1.36
1.27
0.98
0.55
0.12
-0.13
-0.13
0.07
0.32
0.44
0.35
0.11
-0.14
-0.26
-0.19
0.00
0.22
0.36
0.39
0.36
0.29
0.20
0.05
-0.17
-0.44
-0.67
-0.78
-0.72
-0.50
-0.21
0.03
0.16
0.15
0.05
-0.08
-0.21
-0.32
-0.42
-0.55
-0.69
-0.81
-0.84
-0.75
-0.51
-0.19
0.15
0.42
0.59
0.63
0.58
0.45
0.30
0.15
0.03
-0.02
0.00
0.12
0.32
0.53
0.70
0.76
0.65
0.39
0.03
-0.34
-0.57
-0.60
-0.41
-0.09
0.23
0.43
0.44
0.28
0.02
-0.24
-0.42
-0.50
-0.51
-0.51
-0.52
-0.53
-0.48
-0.32
-0.04
0.29
0.56
0.67
0.59
0.39
0.18
0.09
0.14
0.29
0.41
0.42
0.34
0.25
0.26
0.43
0.67
0.84
0.80
0.50
0.03
-0.41
-0.65
-0.63
-0.42
-0.19
-0.06
-0.08
-0.17
-0.22
-0.19
-0.09
0.01
0.02
-0.07
-0.21
-0.33
-0.36
-0.28
-0.14
-0.00
0.07
0.05
-0.06
-0.18
-0.24
-0.19
-0.05
0.14
0.29
0.33
0.23
0.03
-0.21
-0.41
-0.54
-0.59
-0.57
-0.49
-0.39
-0.29
-0.25
-0.31
-0.45
-0.64
-0.74
-0.68
-0.40
0.03
0.47
0.76
0.81
0.61
0.28
-0.04
-0.24
-0.29
-0.21
-0.07
0.06
0.16
0.23
0.27
0.27
0.24
0.17
0.08
0.02
0.04
0.16
0.37
0.63
0.85
0.96
0.88
0.58
0.13
-0.36
-0.72
-0.79
-0.54
-0.06
0.46
0.81
0.86
0.64
0.25
-0.14
-0.41
-0.51
-0.48
-0.32
-0.08
0.22
0.52
0.74
0.81
0.72
0.51
0.24
-0.01
-0.21
-0.38
-0.51
-0.59
-0.57
-0.40
-0.09
0.29
0.64
0.83
0.83
0.67
0.42
0.17
-0.05
-0.22
-0.38
-0.52
-0.65
-0.73
-0.76
-0.76
-0.76
-0.76
-0.74
-0.65
-0.46
-0.17
0.14
0.35
0.39
0.25
0.05
-0.10
-0.07
0.13
0.43
0.69
0.80
0.76
0.63
0.49
0.39
0.28
0.12
-0.13
-0.40
-0.56
-0.54
-0.32
-0.06
0.10
0.04
-0.23
-0.55
-0.75
-0.72
-0.51
-0.24
-0.03
0.07
0.11
0.16
0.26
0.37
0.40
0.24
-0.09
-0.49
-0.81
-0.90
-0.73
-0.34
0.13
0.55
0.84
0.98
0.98
0.89
0.73
0.51
0.26
-0.02
-0.28
-0.49
-0.64
-0.72
-0.75
-0.74
-0.70
-0.61
-0.48
-0.30
-0.10
0.09
0.27
0.40
0.47
0.46
0.35
0.18
-0.00
-0.15
-0.20
-0.17
-0.11
-0.06
-0.07
-0.12
-0.17
-0.17
-0.09
0.04
0.17
0.23
0.22
0.18
0.15
0.17
0.21
0.23
0.19
0.08
-0.06
-0.18
-0.26
-0.32
-0.37
-0.39
-0.35
-0.22
0.01
0.28
0.50
0.62
0.60
0.48
0.28
0.05
-0.17
-0.33
-0.37
-0.26
-0.01
0.31
0.61
0.83
0.98
1.07
1.15
1.20
1.18
1.03
0.76
0.42
0.11
-0.10
-0.22
-0.28
-0.35
-0.48
-0.66
-0.84
-1.00
-1.09
-1.10
-1.04
-0.89
-0.70
-0.53
-0.42
-0.41
-0.44
-0.45
-0.37
-0.19
0.05
0.26
0.35
0.31
0.17
-0.01
-0.20
-0.38
-0.57
-0.71
-0.74
-0.61
-0.32
0.04
0.34
0.49
0.45
0.29
0.09
-0.06
-0.13
-0.10
-0.03
0.06
0.13
0.17
0.17
0.13
0.08
0.03
0.03
0.11
0.30
0.54
0.75
0.85
0.76
0.49
0.12
-0.21
-0.40
-0.39
-0.24
-0.05
0.06
0.03
-0.10
-0.24
-0.30
-0.27
-0.18
-0.14
-0.20
-0.34
-0.46
-0.48
-0.34
-0.08
0.17
0.32
0.35
0.34
0.38
0.55
0.80
1.01
1.07
0.94
0.71
0.52
0.45
0.51
0.60
0.59
0.42
0.11
-0.24
-0.50
-0.58
-0.47
-0.21
0.10
0.35
0.46
0.42
0.23
-0.02
-0.26
-0.45
-0.55
-0.55
-0.48
-0.34
-0.18
-0.05
-0.01
-0.08
-0.24
-0.46
-0.64
-0.76
-0.81
-0.80
-0.76
-0.67
-0.52
-0.31
-0.10
0.06
0.09
0.01
-0.12
-0.20
-0.18
-0.06
0.06
0.09
0.00
-0.12
-0.17
-0.04
0.28
0.66
0.96
1.06
0.97
0.76
0.56
0.42
0.34
0.27
0.15
-0.02
-0.16
-0.19
-0.10
0.09
0.28
0.38
0.35
0.22
0.07
-0.02
-0.05
-0.08
-0.16
-0.33
-0.58
-0.83
-0.99
-1.01
-0.89
-0.67
-0.38
-0.08
0.23
0.52
0.75
0.87
0.83
0.64
0.35
0.05
-0.16
-0.24
-0.19
-0.05
0.12
0.31
0.52
0.74
0.97
1.14
1.16
0.98
0.61
0.16
-0.22
-0.39
-0.31
-0.07
0.17
0.25
0.07
-0.32
-0.77
-1.11
-1.25
-1.18
-0.99
-0.83
-0.78
-0.85
-0.96
-0.97
-0.83
-0.53
-0.15
0.20
0.46
0.56
0.50
0.30
0.00
-0.32
-0.56
-0.62
-0.46
-0.13
0.26
0.55
0.62
0.48
0.19
-0.07
-0.20
-0.15
0.01
0.17
0.24
0.19
0.09
0.04
0.12
0.31
0.53
0.68
0.67
0.50
0.27
0.08
-0.02
-0.06
-0.09
-0.16
-0.25
-0.31
-0.28
-0.16
0.01
0.14
0.16
0.05
-0.12
-0.27
-0.29
-0.16
0.09
0.39
0.66
0.83
0.88
0.85
0.76
0.64
0.52
0.39
0.25
0.10
-0.03
-0.13
-0.16
-0.11
0.00
0.12
0.19
0.13
-0.05
-0.33
-0.62
-0.81
-0.86
-0.80
-0.70
-0.67
-0.76
-0.93
-1.10
-1.13
-0.97
-0.65
-0.30
-0.05
0.00
-0.13
-0.35
-0.51
-0.55
-0.44
-0.21
0.07
0.38
0.68
0.97
1.19
1.31
1.27
1.08
0.80
0.52
0.34
0.31
0.39
0.52
0.60
0.60
0.53
0.48
0.53
0.69
0.85
0.88
0.66
0.22
-0.30
-0.68
-0.77
-0.58
-0.27
-0.06
-0.11
-0.44
-0.92
-1.36
-1.59
-1.57
-1.35
-1.02
-0.68
-0.41
-0.23
-0.15
-0.15
-0.20
-0.27
-0.31
-0.31
-0.25
-0.13
0.03
0.23
0.43
0.59
0.61
0.44
0.09
-0.32
-0.61
-0.63
-0.34
0.17
0.73
1.14
1.29
1.21
0.96
0.66
0.39
0.20
0.10
0.06
0.06
0.05
0.01
-0.04
-0.09
-0.11
-0.07
0.06
0.28
0.57
0.87
1.05
1.02
0.73
0.25
-0.27
-0.63
-0.73
-0.54
-0.17
0.24
0.55
0.73
0.76
0.68
0.53
0.30
-0.02
-0.44
-0.93
-1.40
-1.72
-1.79
-1.54
-1.07
-0.55
-0.17
-0.05
-0.17
-0.39
-0.54
-0.53
-0.39
-0.24
-0.24
-0.39
-0.62
-0.78
-0.73
-0.43
0.04
0.54
0.93
1.18
1.29
1.32
1.26
1.10
0.82
0.47
0.13
-0.04
0.04
0.35
0.76
1.08
1.15
0.92
0.46
-0.03
-0.37
-0.46
-0.34
-0.13
-0.01
-0.05
-0.21
-0.37
-0.40
-0.26
-0.04
0.12
0.13
-0.01
-0.23
-0.40
-0.43
-0.33
-0.17
-0.06
-0.06
-0.17
-0.33
-0.44
-0.46
-0.40
-0.30
-0.20
-0.14
-0.10
-0.04
0.05
0.15
0.21
0.21
0.11
-0.02
-0.12
-0.11
0.01
0.23
0.47
0.67
0.77
0.77
0.69
0.54
0.37
0.18
0.00
-0.18
-0.36
-0.54
-0.69
-0.80
-0.81
-0.71
-0.49
-0.20
0.05
0.18
0.15
-0.03
-0.27
-0.47
-0.55
-0.47
-0.23
0.11
0.46
0.74
0.87
0.82
0.60
0.27
-0.08
-0.38
-0.58
-0.69
-0.71
-0.68
-0.60
-0.52
-0.45
-0.42
-0.43
-0.47
-0.46
-0.37
-0.18
0.09
0.40
0.70
0.95
1.10
1.10
0.95
0.70
0.44
0.29
0.31
0.47
0.62
0.60
0.28
-0.28
-0.94
-1.45
-1.64
-1.47
-1.02
-0.46
0.05
0.39
0.53
0.47
0.28
0.07
-0.06
-0.01
0.24
0.64
1.03
1.26
1.22
0.90
0.42
-0.05
-0.41
-0.64
-0.78
-0.88
-0.95
-0.89
-0.63
-0.15
0.44
0.94
1.14
0.96
0.46
-0.14
-0.62
-0.82
-0.71
-0.39
0.00
0.33
0.56
0.69
0.74
0.71
0.59
0.36
0.04
-0.29
-0.52
-0.60
-0.50
-0.29
-0.07
0.08
0.11
0.04
-0.08
-0.17
-0.24
-0.30
-0.39
-0.53
-0.66
-0.71
-0.59
-0.28
0.12
0.50
0.72
0.72
0.51
0.16
-0.22
-0.55
-0.73
-0.74
-0.61
-0.38
-0.14
0.01
0.01
-0.13
-0.36
-0.60
-0.73
-0.70
-0.48
-0.09
0.38
0.81
1.09
1.12
0.91
0.55
0.17
-0.09
-0.18
-0.10
0.03
0.13
0.17
0.18
0.24
0.38
0.56
0.68
0.65
0.45
0.13
-0.19
-0.40
-0.46
-0.36
-0.15
0.16
0.55
0.95
1.26
1.35
1.15
0.72
0.23
-0.13
-0.25
-0.15
0.04
0.18
0.16
-0.02
-0.29
-0.61
-0.92
-1.17
-1.31
-1.28
-1.07
-0.74
-0.38
-0.10
0.07
0.14
0.20
0.25
0.29
0.28
0.18
0.06
-0.02
-0.02
0.04
0.09
0.06
-0.06
-0.20
-0.29
-0.28
-0.15
0.04
0.26
0.48
0.64
0.70
0.58
0.28
-0.12
-0.47
-0.65
-0.64
-0.51
-0.39
-0.37
-0.47
-0.60
-0.68
-0.70
-0.70
-0.74
-0.83
-0.89
-0.86
-0.68
-0.38
-0.05
0.22
0.41
0.53
0.62
0.71
0.80
0.86
0.91
0.94
0.98
1.01
1.02
0.96
0.82
0.63
0.41
0.20
0.03
-0.09
-0.15
-0.14
-0.09
-0.01
0.02
-0.05
-0.27
-0.57
-0.83
-0.93
-0.80
-0.47
-0.04
0.35
0.58
0.62
0.51
0.32
0.17
0.14
0.26
0.51
0.77
0.95
0.96
0.81
0.57
0.31
0.08
-0.15
-0.42
-0.74
-1.08
-1.32
-1.38
-1.24
-0.96
-0.65
-0.38
-0.17
0.00
0.15
0.26
0.34
0.39
0.47
0.63
0.85
1.04
1.05
0.77
0.22
-0.47
-1.06
-1.38
-1.37
-1.09
-0.72
-0.40
-0.20
-0.09
-0.01
0.07
0.13
0.08
-0.11
-0.41
-0.71
-0.87
-0.76
-0.39
0.12
0.61
0.92
0.99
0.85
0.62
0.43
0.33
0.35
0.42
0.47
0.46
0.37
0.24
0.12
0.02
-0.08
-0.20
-0.33
-0.46
-0.54
-0.54
-0.45
-0.30
-0.13
0.03
0.13
0.16
0.08
-0.13
-0.40
-0.63
-0.69
-0.50
-0.11
0.36
0.74
0.92
0.90
0.73
0.53
0.35
0.19
-0.02
-0.28
-0.55
-0.72
-0.71
-0.51
-0.24
-0.04
-0.01
-0.15
-0.33
-0.39
-0.26
0.06
0.40
0.64
0.71
0.66
0.60
0.61
0.69
0.76
0.72
0.54
0.29
0.09
0.00
0.05
0.17
0.29
0.36
0.39
0.35
0.23
-0.01
-0.38
-0.79
-1.12
-1.24
-1.07
-0.67
-0.16
0.31
0.63
0.77
0.70
0.42
-0.05
-0.67
-1.27
-1.68
-1.74
-1.42
-0.82
-0.12
0.46
0.82
0.96
0.93
0.80
0.60
0.37
0.15
0.01
-0.01
0.10
0.27
0.43
0.49
0.42
0.23
-0.00
-0.20
-0.32
-0.35
-0.30
-0.25
-0.21
-0.23
-0.33
-0.50
-0.73
-0.94
-1.05
-0.99
-0.73
-0.35
0.02
0.25
0.31
0.26
0.26
0.40
0.65
0.88
0.98
0.87
0.63
0.41
0.32
0.38
0.52
0.63
0.66
0.62
0.54
0.47
0.39
0.26
0.07
-0.19
-0.49
-0.79
-1.03
-1.18
-1.19
-1.05
-0.78
-0.43
-0.09
0.14
0.21
0.15
0.01
-0.14
-0.25
-0.31
-0.32
-0.30
-0.24
-0.12
0.05
0.27
0.48
0.64
0.72
0.73
0.67
0.59
0.50
0.41
0.32
0.22
0.11
0.02
-0.05
-0.14
-0.26
-0.44
-0.67
-0.88
-0.99
-0.93
-0.72
-0.40
-0.06
0.23
0.46
0.64
0.76
0.79
0.66
0.37
-0.04
-0.45
-0.71
-0.76
-0.60
-0.36
-0.15
-0.04
0.00
0.05
0.19
0.41
0.65
0.79
0.75
0.53
0.20
-0.10
-0.28
-0.30
-0.20
-0.06
0.06
0.16
0.27
0.40
0.51
0.54
0.39
0.03
-0.45
-0.89
-1.13
-1.05
-0.70
-0.21
0.22
0.45
0.45
0.29
0.08
-0.07
-0.15
-0.18
-0.18
-0.17
-0.14
-0.06
0.06
0.18
0.24
0.20
0.07
-0.10
-0.26
-0.33
-0.29
-0.16
-0.00
0.10
0.10
-0.01
-0.20
-0.42
-0.61
-0.72
-0.76
-0.70
-0.54
-0.31
-0.04
0.18
0.29
0.25
0.11
-0.04
-0.13
-0.12
-0.02
0.12
0.28
0.46
0.65
0.81
0.86
0.73
0.42
-0.01
-0.39
-0.58
-0.51
-0.23
0.11
0.36
0.43
0.33
0.14
-0.04
-0.13
-0.10
0.02
0.20
0.36
0.49
0.57
0.63
0.71
0.82
0.97
1.12
1.22
1.25
1.20
1.09
0.96
0.78
0.55
0.26
-0.04
-0.31
-0.49
-0.56
-0.55
-0.54
-0.57
-0.68
-0.84
-1.00
-1.12
-1.14
-1.05
-0.83
-0.53
-0.23
0.01
0.08
-0.02
-0.25
-0.53
-0.74
-0.81
-0.70
-0.47
-0.19
0.03
0.13
0.11
0.01
-0.07
-0.10
-0.05
0.02
0.06
0.06
0.05
0.07
0.16
0.25
0.27
0.16
-0.08
-0.35
-0.53
-0.54
-0.41
-0.24
-0.11
-0.07
-0.07
-0.05
0.04
0.20
0.35
0.45
0.45
0.38
0.28
0.18
0.11
0.07
0.05
0.07
0.12
0.20
0.30
0.38
0.42
0.41
0.34
0.25
0.13
-0.03
-0.22
-0.44
-0.63
-0.73
-0.67
-0.47
-0.21
-0.00
0.07
0.02
-0.06
-0.01
0.26
0.70
1.16
1.42
1.37
1.03
0.53
0.06
-0.29
-0.51
-0.69
-0.87
-1.05
-1.17
-1.12
-0.89
-0.50
-0.09
0.23
0.39
0.35
0.17
-0.10
-0.36
-0.53
-0.57
-0.47
-0.30
-0.13
-0.00
0.08
0.20
0.38
0.63
0.85
0.95
0.88
0.69
0.52
0.47
0.57
0.72
0.74
0.57
0.22
-0.16
-0.42
-0.47
-0.35
-0.17
-0.04
-0.01
-0.05
-0.07
-0.00
0.15
0.32
0.41
0.36
0.16
-0.12
-0.37
-0.49
-0.44
-0.24
0.00
0.18
0.18
-0.03
-0.41
-0.85
-1.22
-1.39
-1.29
-0.93
-0.41
0.12
0.50
0.64
0.53
0.30
0.09
0.05
0.18
0.38
0.48
0.38
0.14
-0.07
-0.07
0.22
0.72
1.19
1.42
1.33
1.02
0.69
0.48
0.42
0.42
0.35
0.12
-0.21
-0.51
-0.66
-0.62
-0.45
-0.27
-0.19
-0.29
-0.55
-0.90
-1.26
-1.50
-1.53
-1.35
-1.02
-0.65
-0.38
-0.24
-0.21
-0.16
-0.03
0.21
0.46
0.61
0.59
0.43
0.25
0.18
0.27
0.45
0.63
0.69
0.60
0.40
0.14
-0.12
-0.33
-0.46
-0.47
-0.33
-0.02
0.40
0.84
1.21
1.43
1.46
1.29
0.96
0.48
-0.08
-0.63
-1.06
-1.29
-1.30
-1.16
-1.00
-0.91
-0.92
-0.96
-0.94
-0.83
-0.64
-0.45
-0.32
-0.30
-0.31
-0.31
-0.24
-0.14
-0.06
-0.05
-0.10
-0.16
-0.16
-0.09
-0.00
0.03
-0.02
-0.09
-0.08
0.10
0.40
0.71
0.89
0.92
0.84
0.79
0.83
0.91
0.92
0.75
0.39
-0.04
-0.38
-0.49
-0.38
-0.13
0.10
0.21
0.16
0.00
-0.19
-0.32
-0.35
-0.28
-0.18
-0.14
-0.20
-0.38
-0.57
-0.62
-0.42
0.05
0.68
1.28
1.62
1.61
1.28
0.81
0.38
0.14
0.10
0.19
0.31
0.35
0.29
0.13
-0.10
-0.37
-0.63
-0.84
-0.95
-0.93
-0.78
-0.56
-0.31
-0.08
0.15
0.35
0.51
0.56
0.43
0.12
-0.30
-0.69
-0.90
-0.86
-0.56
-0.11
0.33
0.64
0.75
0.66
0.43
0.14
-0.13
-0.32
-0.37
-0.25
0.01
0.31
0.56
0.64
0.50
0.19
-0.20
-0.52
-0.64
-0.54
-0.27
0.07
0.35
0.49
0.50
0.41
0.29
0.17
0.05
-0.07
-0.18
-0.26
-0.24
-0.08
0.19
0.47
0.67
0.69
0.54
0.28
0.03
-0.15
-0.22
-0.21
-0.18
-0.16
-0.14
-0.12
-0.11
-0.16
-0.30
-0.55
-0.83
-1.04
-1.08
-0.90
-0.54
-0.11
0.25
0.46
0.49
0.39
0.24
0.11
0.02
-0.04
-0.09
-0.17
-0.31
-0.49
-0.71
-0.94
-1.14
-1.25
-1.25
-1.11
-0.83
-0.45
-0.03
0.33
0.56
0.62
0.51
0.29
0.07
-0.07
-0.06
0.11
0.39
0.73
1.06
1.31
1.44
1.40
1.18
0.82
0.42
0.15
0.10
0.26
0.56
0.82
0.89
0.73
0.42
0.07
-0.22
-0.38
-0.46
-0.47
-0.46
-0.41
-0.32
-0.17
-0.02
0.09
0.11
0.02
-0.16
-0.38
-0.55
-0.59
-0.43
-0.08
0.36
0.72
0.82
0.58
0.04
-0.61
-1.14
-1.43
-1.43
-1.23
-0.95
-0.70
-0.50
-0.31
-0.10
0.14
0.40
0.61
0.74
0.73
0.59
0.37
0.16
0.04
0.08
0.25
0.46
0.59
0.54
0.32
0.02
-0.24
-0.35
-0.31
-0.16
-0.00
0.11
0.16
0.13
0.04
-0.15
-0.45
-0.82
-1.17
-1.35
-1.25
-0.86
-0.26
0.37
0.88
1.15
1.16
0.95
0.63
0.32
0.11
0.07
0.17
0.32
0.42
0.38
0.23
0.05
-0.05
-0.00
0.13
0.23
0.14
-0.14
-0.52
-0.81
-0.85
-0.56
-0.07
0.45
0.81
0.92
0.84
0.68
0.56
0.51
0.51
0.47
0.37
0.23
0.11
0.08
0.14
0.23
0.23
0.09
-0.19
-0.50
-0.72
-0.76
-0.60
-0.32
-0.06
0.06
-0.02
-0.28
-0.64
-0.96
-1.15
-1.16
-1.01
-0.78
-0.54
-0.35
-0.21
-0.09
0.03
0.14
0.21
0.20
0.13
0.03
-0.05
-0.10
-0.13
-0.15
-0.17
-0.17
-0.07
0.17
0.51
0.89
1.17
1.24
1.06
0.70
0.27
-0.07
-0.29
-0.36
-0.35
-0.32
-0.30
-0.29
-0.25
-0.18
-0.05
0.13
0.33
0.51
0.59
0.49
0.21
-0.19
-0.59
-0.86
-0.94
-0.84
-0.65
-0.49
-0.40
-0.36
-0.30
-0.17
0.02
0.20
0.32
0.33
0.26
0.18
0.12
0.14
0.23
0.41
0.65
0.88
1.03
0.99
0.78
0.43
0.09
-0.15
-0.25
-0.28
-0.36
-0.54
-0.77
-0.91
-0.85
-0.58
-0.21
0.08
0.21
0.17
0.08
0.04
0.09
0.22
0.39
0.54
0.66
0.77
0.87
0.98
1.08
1.16
1.20
1.14
0.94
0.59
0.12
-0.34
-0.69
-0.86
-0.86
-0.79
-0.76
-0.81
-0.91
-0.95
-0.85
-0.60
-0.27
0.00
0.14
0.11
-0.02
-0.17
-0.28
-0.35
-0.38
-0.40
-0.36
-0.24
-0.03
0.22
0.39
0.40
0.24
0.02
-0.12
-0.07
0.17
0.51
0.78
0.87
0.76
0.52
0.26
0.07
-0.02
-0.03
0.00
0.03
0.01
-0.07
-0.20
-0.35
-0.52
-0.67
-0.78
-0.81
-0.74
-0.57
-0.34
-0.12
0.03
0.06
-0.02
-0.13
-0.21
-0.25
-0.24
-0.22
-0.18
-0.08
0.12
0.42
0.72
0.88
0.80
0.47
-0.00
-0.43
-0.66
-0.64
-0.42
-0.12
0.15
0.33
0.41
0.42
0.37
0.27
0.11
-0.08
-0.24
-0.34
-0.35
-0.29
-0.18
-0.08
0.00
0.09
0.18
0.27
0.31
0.30
0.22
0.13
0.07
0.07
0.12
0.21
0.34
0.51
0.69
0.84
0.89
0.76
0.44
0.02
-0.36
-0.56
-0.55
-0.37
-0.17
-0.05
-0.07
-0.18
-0.30
-0.38
-0.42
-0.43
-0.43
-0.40
-0.27
-0.04
0.25
0.45
0.45
0.17
-0.28
-0.71
-0.92
-0.80
-0.40
0.10
0.48
0.63
0.53
0.32
0.13
0.05
0.09
0.19
0.29
0.34
0.32
0.22
0.08
-0.07
-0.20
-0.30
-0.36
-0.38
-0.39
-0.38
-0.34
-0.27
-0.17
-0.08
0.00
0.09
0.20
0.37
0.56
0.70
0.70
0.52
0.23
-0.03
-0.12
0.03
0.35
0.70
0.92
0.90
0.63
0.18
-0.34
-0.79
-1.07
-1.13
-0.97
-0.66
-0.31
-0.03
0.14
0.21
0.22
0.23
0.21
0.13
-0.03
-0.22
-0.32
-0.26
-0.04
0.21
0.35
0.26
-0.03
-0.40
-0.65
-0.66
-0.40
0.05
0.53
0.90
1.04
0.94
0.61
0.13
-0.39
-0.87
-1.24
-1.47
-1.56
-1.47
-1.19
-0.77
-0.30
0.06
0.23
0.19
0.06
-0.04
-0.02
0.09
0.20
0.19
0.05
-0.15
-0.30
-0.32
-0.20
0.03
0.30
0.60
0.92
1.24
1.49
1.58
1.47
1.16
0.76
0.39
0.12
-0.03
-0.08
-0.07
-0.02
0.07
0.17
0.22
0.18
0.02
-0.22
-0.45
-0.57
-0.54
-0.35
-0.09
0.13
0.18
-0.00
-0.37
-0.81
-1.13
-1.17
-0.88
-0.36
0.14
0.40
0.30
-0.09
-0.57
-0.88
-0.92
-0.70
-0.35
-0.00
0.28
0.49
0.67
0.79
0.81
0.69
0.42
0.08
-0.22
-0.39
-0.43
-0.37
-0.30
-0.24
-0.21
-0.16
-0.05
0.10
0.28
0.46
0.59
0.63
0.58
0.45
0.29
0.12
-0.01
-0.11
-0.18
-0.23
-0.24
-0.21
-0.11
0.07
0.30
0.52
0.67
0.74
0.75
0.74
0.71
0.63
0.47
0.17
-0.24
-0.66
-0.96
-1.02
-0.78
-0.32
0.19
0.56
0.67
0.51
0.17
-0.22
-0.50
-0.61
-0.53
-0.30
-0.02
0.20
0.29
0.21
-0.02
-0.31
-0.57
-0.73
-0.76
-0.71
-0.62
-0.55
-0.49
-0.45
-0.37
-0.25
-0.07
0.15
0.36
0.50
0.51
0.40
0.19
-0.03
-0.17
-0.23
-0.22
-0.20
-0.22
-0.27
-0.32
-0.27
-0.13
0.09
0.29
0.41
0.42
0.38
0.37
0.40
0.47
0.51
0.47
0.35
0.19
0.02
-0.12
-0.24
-0.34
-0.45
-0.52
-0.53
-0.45
-0.29
-0.08
0.11
0.25
0.33
0.33
0.30
0.25
0.18
0.09
-0.03
-0.19
-0.35
-0.46
-0.46
-0.35
-0.14
0.11
0.32
0.47
0.55
0.57
0.55
0.49
0.41
0.29
0.15
0.02
-0.07
-0.12
-0.11
-0.07
-0.01
0.06
0.13
0.24
0.37
0.50
0.58
0.56
0.45
0.30
0.21
0.28
0.47
0.68
0.71
0.45
-0.09
-0.71
-1.16
-1.25
-0.96
-0.46
-0.03
0.15
0.03
-0.23
-0.43
-0.42
-0.21
0.08
0.26
0.23
0.03
-0.19
-0.27
-0.14
0.16
0.49
0.74
0.83
0.80
0.71
0.61
0.52
0.41
0.24
-0.01
-0.34
-0.70
-1.01
-1.19
-1.22
-1.08
-0.86
-0.68
-0.61
-0.68
-0.82
-0.89
-0.78
-0.45
0.05
0.60
1.06
1.35
1.44
1.37
1.22
1.03
0.82
0.59
0.33
0.09
-0.10
-0.16
-0.08
0.11
0.28
0.32
0.16
-0.15
-0.47
-0.64
-0.58
-0.32
-0.02
0.15
0.07
-0.25
-0.67
-0.99
-1.07
-0.87
-0.51
-0.18
-0.06
-0.21
-0.57
-0.99
-1.28
-1.33
-1.12
-0.73
-0.26
0.19
0.56
0.83
0.99
1.02
0.92
0.69
0.39
0.09
-0.12
-0.21
-0.19
-0.09
0.03
0.16
0.33
0.54
0.78
0.95
0.95
0.70
0.22
-0.36
-0.87
-1.17
-1.17
-0.91
-0.52
-0.12
0.17
0.33
0.36
0.30
0.19
0.06
-0.04
-0.06
0.06
0.33
0.69
1.00
1.07
0.82
0.29
-0.32
-0.74
-0.79
-0.50
-0.06
0.26
0.28
0.03
-0.33
-0.60
-0.65
-0.51
-0.29
-0.12
-0.02
0.06
0.21
0.45
0.76
1.02
1.13
1.06
0.83
0.56
0.37
0.34
0.47
0.68
0.83
0.77
0.46
-0.05
-0.60
-1.01
-1.19
-1.12
-0.91
-0.68
-0.49
-0.38
-0.30
-0.25
-0.24
-0.29
-0.42
-0.59
-0.70
-0.64
-0.37
0.07
0.56
0.90
0.97
0.72
0.27
-0.22
-0.55
-0.58
-0.31
0.13
0.56
0.79
0.74
0.45
0.07
-0.22
-0.28
-0.11
0.20
0.50
0.64
0.57
0.33
-0.00
-0.34
-0.60
-0.74
-0.75
-0.62
-0.38
-0.10
0.15
0.31
0.35
0.29
0.13
-0.10
-0.37
-0.66
-0.86
-0.89
-0.71
-0.37
-0.03
0.14
0.07
-0.18
-0.42
-0.44
-0.15
0.39
0.98
1.39
1.44
1.12
0.55
-0.06
-0.51
-0.66
-0.50
-0.13
0.27
0.56
0.64
0.55
0.35
0.14
-0.08
-0.28
-0.49
-0.66
-0.74
-0.66
-0.43
-0.16
0.06
0.15
0.13
0.11
0.18
0.42
0.76
1.08
1.23
1.14
0.84
0.43
0.04
-0.24
-0.41
-0.52
-0.62
-0.70
-0.73
-0.65
-0.46
-0.22
-0.06
-0.06
-0.21
-0.42
-0.52
-0.39
-0.05
0.35
0.58
0.50
0.14
-0.32
-0.69
-0.84
-0.81
-0.74
-0.74
-0.79
-0.76
-0.51
-0.05
0.47
0.81
0.80
0.49
0.08
-0.16
-0.08
0.30
0.79
1.17
1.30
1.15
0.81
0.42
0.10
-0.07
-0.09
-0.01
0.13
0.25
0.30
0.28
0.18
0.04
-0.09
-0.17
-0.20
-0.21
-0.25
-0.40
-0.66
-0.95
-1.11
-1.00
-0.62
-0.08
0.41
0.66
0.61
0.35
0.04
-0.18
-0.30
-0.37
-0.46
-0.58
-0.66
-0.63
-0.43
-0.13
0.19
0.42
0.52
0.49
0.38
0.25
0.17
0.13
0.12
0.08
-0.01
-0.18
-0.37
-0.50
-0.53
-0.45
-0.30
-0.11
0.09
0.28
0.49
0.68
0.83
0.90
0.89
0.82
0.70
0.54
0.31
0.02
-0.27
-0.49
-0.54
-0.39
-0.09
0.25
0.55
0.74
0.80
0.74
0.57
0.34
0.12
-0.01
0.02
0.21
0.46
0.65
0.66
0.47
0.16
-0.16
-0.38
-0.45
-0.44
-0.42
-0.44
-0.55
-0.76
-1.04
-1.34
-1.58
-1.68
-1.58
-1.28
-0.85
-0.41
-0.09
0.07
0.05
-0.04
-0.14
-0.21
-0.26
-0.31
-0.35
-0.33
-0.23
-0.05
0.14
0.21
0.10
-0.16
-0.46
-0.63
-0.56
-0.23
0.26
0.73
1.04
1.08
0.87
0.51
0.16
-0.05
-0.04
0.14
0.38
0.54
0.56
0.45
0.29
0.18
0.17
0.24
0.34
0.44
0.51
0.54
0.51
0.41
0.24
0.02
-0.19
-0.34
-0.39
-0.35
-0.23
-0.08
0.07
0.24
0.42
0.59
0.71
0.71
0.57
0.31
-0.00
-0.24
-0.29
-0.12
0.22
0.58
0.78
0.70
0.36
-0.13
-0.59
-0.85
-0.83
-0.59
-0.24
0.06
0.21
0.19
0.02
-0.23
-0.47
-0.64
-0.70
-0.63
-0.41
-0.05
0.38
0.79
1.07
1.14
0.99
0.70
0.40
0.23
0.22
0.33
0.45
0.45
0.28
0.00
-0.31
-0.55
-0.69
-0.72
-0.69
-0.60
-0.46
-0.28
-0.13
-0.08
-0.20
-0.49
-0.89
-1.27
-1.51
-1.53
-1.35
-1.04
-0.67
-0.30
0.04
0.34
0.56
0.66
0.59
0.39
0.12
-0.12
-0.28
-0.32
-0.28
-0.22
-0.14
-0.07
0.03
0.18
0.41
0.68
0.92
1.07
1.07
0.92
0.69
0.49
0.39
0.39
0.40
0.33
0.13
-0.13
-0.31
-0.32
-0.16
0.05
0.14
0.03
-0.24
-0.50
-0.62
-0.55
-0.38
-0.25
-0.26
-0.39
-0.51
-0.51
-0.37
-0.13
0.10
0.23
0.26
0.22
0.14
0.06
-0.01
-0.06
-0.07
-0.05
-0.00
0.05
0.09
0.12
0.16
0.22
0.30
0.37
0.35
0.23
0.03
-0.17
-0.28
-0.26
-0.13
0.07
0.26
0.40
0.45
0.44
0.38
0.31
0.27
0.28
0.32
0.37
0.41
0.40
0.35
0.23
0.07
-0.10
-0.24
-0.29
-0.23
-0.06
0.18
0.41
0.57
0.61
0.53
0.35
0.08
-0.29
-0.74
-1.24
-1.67
-1.85
-1.66
-1.09
-0.27
0.54
1.09
1.23
0.99
0.53
0.05
-0.28
-0.38
-0.29
-0.10
0.07
0.11
-0.00
-0.25
-0.53
-0.71
-0.69
-0.43
-0.03
0.36
0.60
0.59
0.34
-0.06
-0.49
-0.83
-1.02
-1.00
-0.80
-0.46
-0.06
0.32
0.61
0.78
0.85
0.86
0.83
0.74
0.57
0.30
-0.03
-0.32
-0.46
-0.37
-0.09
0.27
0.55
0.64
0.52
0.26
-0.03
-0.26
-0.41
-0.53
-0.70
-0.88
-1.00
-0.94
-0.66
-0.27
0.07
0.18
0.03
-0.27
-0.54
-0.61
-0.46
-0.20
0.03
0.14
0.14
0.12
0.17
0.28
0.41
0.49
0.47
0.38
0.27
0.19
0.20
0.26
0.34
0.39
0.39
0.34
0.29
0.29
0.36
0.51
0.67
0.76
0.72
0.51
0.14
-0.30
-0.67
-0.83
-0.67
-0.21
0.41
0.95
1.21
1.12
0.75
0.30
-0.08
-0.29
-0.38
-0.40
-0.40
-0.38
-0.32
-0.24
-0.20
-0.28
-0.48
-0.76
-0.99
-1.07
-0.99
-0.79
-0.54
-0.29
-0.04
0.20
0.38
0.43
0.29
0.01
-0.26
-0.35
-0.14
0.36
0.95
1.38
1.47
1.19
0.67
0.13
-0.26
-0.41
-0.37
-0.22
-0.00
0.26
0.58
0.93
1.22
1.35
1.23
0.86
0.33
-0.24
-0.73
-1.06
-1.25
-1.30
-1.24
-1.08
-0.83
-0.52
-0.23
-0.01
0.06
-0.03
-0.24
-0.51
-0.71
-0.78
-0.66
-0.40
-0.08
0.18
0.31
0.31
0.26
0.27
0.38
0.59
0.76
0.78
0.55
0.11
-0.37
-0.72
-0.80
-0.63
-0.33
-0.06
0.09
0.14
0.16
0.25
0.44
0.66
0.78
0.68
0.35
-0.15
-0.69
-1.14
-1.41
-1.47
-1.39
-1.23
-1.07
-0.92
-0.74
-0.48
-0.09
0.38
0.85
1.17
1.28
1.18
0.94
0.67
0.50
0.47
0.56
0.73
0.86
0.90
0.79
0.57
0.30
0.07
-0.06
-0.08
-0.05
-0.02
-0.03
-0.09
-0.16
-0.20
-0.18
-0.11
-0.04
-0.05
-0.15
-0.35
-0.57
-0.72
-0.73
-0.59
-0.33
-0.02
0.28
0.55
0.79
1.00
1.15
1.17
1.01
0.68
0.24
-0.16
-0.44
-0.56
-0.56
-0.51
-0.46
-0.44
-0.36
-0.19
0.08
0.38
0.58
0.59
0.39
0.07
-0.25
-0.45
-0.50
-0.42
-0.27
-0.17
-0.16
-0.28
-0.50
-0.76
-0.96
-1.04
-0.97
-0.79
-0.60
-0.48
-0.49
-0.61
-0.76
-0.85
-0.85
-0.76
-0.60
-0.38
-0.09
0.27
0.65
0.97
1.15
1.13
0.96
0.72
0.53
0.49
0.61
0.85
1.11
1.26
1.21
0.94
0.53
0.11
-0.15
-0.20
-0.08
0.09
0.18
0.14
0.00
-0.13
-0.16
-0.09
0.02
0.10
0.07
-0.04
-0.19
-0.30
-0.34
-0.31
-0.24
-0.18
-0.14
-0.16
-0.24
-0.36
-0.51
-0.63
-0.68
-0.64
-0.51
-0.34
-0.16
-0.02
0.04
0.02
-0.05
-0.12
-0.11
0.00
0.20
0.43
0.63
0.74
0.77
0.74
0.64
0.48
0.27
0.07
-0.03
0.03
0.26
0.57
0.78
0.77
0.52
0.18
-0.07
-0.13
0.01
0.20
0.32
0.32
0.25
0.22
0.29
0.43
0.53
0.54
0.42
0.25
0.07
-0.10
-0.31
-0.59
-0.96
-1.32
-1.55
-1.54
-1.28
-0.84
-0.38
-0.00
0.20
0.21
0.08
-0.12
-0.33
-0.48
-0.54
-0.49
-0.35
-0.18
-0.04
0.02
-0.01
-0.07
-0.10
-0.05
0.06
0.18
0.24
0.21
0.13
0.08
0.13
0.30
0.52
0.66
0.66
0.49
0.22
-0.08
-0.35
-0.58
-0.79
-0.95
-1.00
-0.83
-0.41
0.17
0.72
1.01
0.88
0.37
-0.27
-0.76
-0.90
-0.68
-0.25
0.18
0.46
0.60
0.70
0.82
0.94
0.95
0.74
0.34
-0.11
-0.43
-0.48
-0.28
0.01
0.19
0.17
-0.03
-0.32
-0.53
-0.60
-0.54
-0.39
-0.22
-0.06
0.07
0.18
0.25
0.29
0.28
0.25
0.19
0.12
0.02
-0.10
-0.21
-0.25
-0.16
0.04
0.30
0.49
0.54
0.44
0.29
0.18
0.16
0.20
0.24
0.21
0.08
-0.10
-0.25
-0.32
-0.30
-0.22
-0.13
-0.04
0.01
0.03
0.03
0.04
0.12
0.28
0.54
0.79
0.94
0.87
0.59
0.19
-0.18
-0.38
-0.39
-0.29
-0.23
-0.31
-0.54
-0.78
-0.91
-0.82
-0.53
-0.13
0.24
0.49
0.58
0.55
0.49
0.44
0.41
0.38
0.30
0.14
-0.10
-0.37
-0.65
-0.92
-1.13
-1.26
-1.26
-1.11
-0.82
-0.45
-0.08
0.20
0.35
0.40
0.37
0.32
0.30
0.32
0.39
0.46
0.46
0.36
0.13
-0.16
-0.41
-0.54
-0.50
-0.33
-0.14
-0.01
0.02
-0.05
-0.20
-0.37
-0.53
-0.64
-0.62
-0.42
-0.05
0.40
0.78
0.98
0.96
0.80
0.59
0.42
0.34
0.31
0.29
0.24
0.21
0.23
0.32
0.43
0.50
0.45
0.26
-0.03
-0.35
-0.59
-0.69
-0.64
-0.46
-0.24
-0.04
0.06
0.02
-0.12
-0.31
-0.48
-0.55
-0.52
-0.42
-0.31
-0.23
-0.20
-0.18
-0.11
0.03
0.26
0.52
0.77
0.93
0.95
0.86
0.67
0.44
0.22
0.03
-0.11
-0.19
-0.18
-0.09
0.08
0.28
0.42
0.43
0.30
0.05
-0.25
-0.51
-0.66
-0.67
-0.59
-0.46
-0.33
-0.25
-0.22
-0.23
-0.22
-0.14
0.02
0.25
0.46
0.58
0.56
0.46
0.31
0.20
0.12
0.05
-0.04
-0.16
-0.25
-0.27
-0.21
-0.10
-0.02
-0.06
-0.26
-0.57
-0.89
-1.10
-1.12
-0.97
-0.72
-0.49
-0.32
-0.20
-0.02
0.28
0.69
1.09
1.29
1.19
0.81
0.33
0.00
-0.02
0.25
0.65
0.94
0.97
0.73
0.36
0.04
-0.08
0.00
0.19
0.33
0.26
-0.04
-0.49
-0.94
-1.24
-1.34
-1.26
-1.10
-0.93
-0.76
-0.56
-0.25
0.20
0.73
1.22
1.52
1.56
1.36
1.04
0.75
0.57
0.49
0.43
0.32
0.11
-0.15
-0.36
-0.45
-0.38
-0.20
0.02
0.22
0.34
0.35
0.23
-0.00
-0.30
-0.59
-0.81
-0.95
-1.04
-1.12
-1.22
-1.29
-1.29
-1.16
-0.91
-0.64
-0.43
-0.34
-0.34
-0.36
-0.34
-0.23
-0.07
0.11
0.25
0.33
0.33
0.24
0.09
-0.07
-0.18
-0.19
-0.09
0.09
0.28
0.43
0.53
0.58
0.59
0.59
0.57
0.52
0.45
0.37
0.30
0.29
0.37
0.56
0.87
1.25
1.63
1.88
1.91
1.69
1.27
0.76
0.27
-0.11
-0.40
-0.65
-0.90
-1.14
-1.28
-1.26
-1.04
-0.71
-0.38
-0.16
-0.09
-0.15
-0.23
-0.25
-0.19
-0.08
0.04
0.11
0.13
0.13
0.12
0.13
0.11
0.04
-0.08
-0.24
-0.39
-0.49
-0.51
-0.44
-0.27
-0.01
0.29
0.52
0.59
0.40
-0.05
-0.61
-1.08
-1.23
-0.94
-0.34
0.32
0.74
0.73
0.33
-0.26
-0.74
-0.94
-0.81
-0.47
-0.08
0.27
0.53
0.71
0.80
0.75
0.48
0.01
-0.58
-1.15
-1.55
-1.68
-1.53
-1.18
-0.68
-0.11
0.45
0.91
1.18
1.23
1.08
0.84
0.62
0.49
0.45
0.45
0.41
0.29
0.11
-0.05
-0.14
-0.10
0.06
0.27
0.48
0.60
0.59
0.47
0.27
0.07
-0.05
-0.02
0.14
0.36
0.55
0.59
0.46
0.19
-0.16
-0.47
-0.69
-0.80
-0.82
-0.81
-0.76
-0.67
-0.52
-0.30
-0.02
0.25
0.45
0.54
0.52
0.41
0.29
0.22
0.20
0.23
0.25
0.22
0.14
0.04
-0.05
-0.12
-0.18
-0.27
-0.40
-0.51
-0.51
-0.34
-0.01
0.39
0.67
0.74
0.58
0.31
0.06
-0.08
-0.14
-0.17
-0.25
-0.33
-0.32
-0.15
0.15
0.44
0.51
0.29
-0.15
-0.57
-0.71
-0.46
0.05
0.54
0.75
0.56
0.07
-0.49
-0.86
-0.93
-0.75
-0.46
-0.18
0.03
0.18
0.29
0.35
0.30
0.13
-0.12
-0.33
-0.38
-0.21
0.12
0.44
0.57
0.40
-0.06
-0.65
-1.15
-1.37
-1.23
-0.77
-0.10
0.61
1.18
1.51
1.54
1.33
0.95
0.55
0.23
0.07
0.09
0.22
0.40
0.53
0.54
0.45
0.27
0.10
-0.01
-0.04
0.01
0.07
0.05
-0.08
-0.34
-0.65
-0.90
-0.99
-0.88
-0.64
-0.43
-0.40
-0.61
-0.98
-1.33
-1.44
-1.19
-0.60
0.15
0.81
1.17
1.13
0.72
0.16
-0.33
-0.54
-0.38
0.07
0.60
1.00
1.11
0.95
0.66
0.39
0.24
0.17
0.09
-0.11
-0.41
-0.69
-0.80
-0.65
-0.29
0.15
0.47
0.58
0.52
0.42
0.41
0.55
0.74
0.82
0.65
0.23
-0.32
-0.80
-1.09
-1.14
-1.02
-0.84
-0.65
-0.48
-0.31
-0.14
0.01
0.10
0.15
0.21
0.32
0.45
0.52
0.45
0.20
-0.13
-0.41
-0.53
-0.48
-0.36
-0.29
-0.31
-0.38
-0.42
-0.39
-0.30
-0.27
-0.36
-0.57
-0.80
-0.92
-0.84
-0.57
-0.21
0.11
0.29
0.30
0.17
-0.01
-0.14
-0.12
0.09
0.46
0.85
1.12
1.17
1.01
0.76
0.59
0.62
0.83
1.10
1.25
1.16
0.86
0.45
0.09
-0.14
-0.25
-0.29
-0.34
-0.37
-0.36
-0.27
-0.09
0.10
0.22
0.21
0.04
-0.22
-0.48
-0.64
-0.65
-0.48
-0.17
0.20
0.52
0.71
0.70
0.54
0.30
0.10
-0.01
-0.02
0.01
-0.00
-0.09
-0.25
-0.44
-0.59
-0.71
-0.77
-0.79
-0.76
-0.69
-0.56
-0.39
-0.19
0.04
0.24
0.37
0.38
0.26
0.04
-0.16
-0.20
-0.01
0.38
0.84
1.16
1.19
0.87
0.30
-0.35
-0.86
-1.07
-0.91
-0.46
0.13
0.64
0.93
0.94
0.74
0.44
0.15
-0.05
-0.15
-0.14
-0.00
0.24
0.52
0.71
0.68
0.40
-0.05
-0.48
-0.70
-0.66
-0.42
-0.16
-0.02
-0.05
-0.18
-0.28
-0.27
-0.17
-0.06
-0.04
-0.13
-0.29
-0.40
-0.37
-0.16
0.16
0.46
0.61
0.52
0.21
-0.21
-0.60
-0.84
-0.88
-0.75
-0.52
-0.31
-0.18
-0.16
-0.22
-0.31
-0.39
-0.44
-0.45
-0.43
-0.36
-0.18
0.13
0.54
0.96
1.21
1.18
0.83
0.27
-0.30
-0.66
-0.72
-0.50
-0.15
0.21
0.48
0.66
0.76
0.79
0.70
0.44
0.05
-0.37
-0.67
-0.74
-0.58
-0.30
-0.04
0.12
0.20
0.29
0.45
0.65
0.77
0.69
0.37
-0.09
-0.52
-0.77
-0.76
-0.56
-0.31
-0.13
-0.11
-0.20
-0.33
-0.39
-0.36
-0.24
-0.12
-0.04
-0.05
-0.11
-0.19
-0.22
-0.18
-0.11
-0.04
-0.02
-0.06
-0.14
-0.17
-0.10
0.06
0.28
0.45
0.50
0.40
0.19
-0.04
-0.19
-0.21
-0.15
-0.03
0.08
0.18
0.27
0.35
0.41
0.41
0.38
0.31
0.26
0.22
0.14
-0.02
-0.29
-0.60
-0.83
-0.89
-0.73
-0.39
0.01
0.37
0.61
0.72
0.71
0.57
0.33
0.04
-0.22
-0.36
-0.32
-0.11
0.18
0.46
0.65
0.68
0.56
0.34
0.06
-0.21
-0.40
-0.49
-0.50
-0.45
-0.43
-0.45
-0.52
-0.56
-0.51
-0.31
-0.00
0.31
0.52
0.54
0.37
0.08
-0.21
-0.39
-0.42
-0.29
-0.07
0.15
0.31
0.40
0.44
0.48
0.54
0.63
0.73
0.80
0.82
0.78
0.66
0.49
0.28
0.04
-0.21
-0.44
-0.64
-0.79
-0.87
-0.88
-0.81
-0.67
-0.48
-0.26
-0.05
0.11
0.20
0.21
0.15
0.07
0.02
0.04
0.12
0.24
0.35
0.40
0.39
0.33
0.28
0.26
0.30
0.37
0.44
0.49
0.50
0.44
0.33
0.18
0.04
-0.02
0.03
0.18
0.32
0.31
0.08
-0.33
-0.78
-1.08
-1.09
-0.81
-0.37
0.01
0.19
0.11
-0.12
-0.34
-0.44
-0.37
-0.21
-0.07
-0.03
-0.11
-0.26
-0.38
-0.41
-0.35
-0.22
-0.06
0.10
0.25
0.37
0.45
0.45
0.36
0.19
0.01
-0.17
-0.33
-0.47
-0.60
-0.71
-0.76
-0.71
-0.56
-0.34
-0.13
0.04
0.10
0.08
-0.01
-0.11
-0.20
-0.22
-0.17
-0.05
0.13
0.33
0.48
0.56
0.54
0.43
0.25
0.04
-0.16
-0.27
-0.26
-0.14
0.02
0.16
0.22
0.22
0.23
0.27
0.37
0.45
0.44
0.29
0.01
-0.31
-0.56
-0.67
-0.63
-0.49
-0.32
-0.15
0.00
0.16
0.34
0.52
0.61
0.57
0.33
-0.03
-0.41
-0.62
-0.55
-0.18
0.34
0.82
1.08
1.06
0.82
0.50
0.21
-0.01
-0.13
-0.15
-0.07
0.16
0.50
0.85
1.07
1.02
0.67
0.09
-0.53
-1.01
-1.22
-1.14
-0.83
-0.40
0.02
0.34
0.48
0.44
0.25
0.00
-0.17
-0.18
-0.04
0.15
0.29
0.27
0.14
-0.01
-0.02
0.15
0.47
0.81
1.00
0.97
0.72
0.31
-0.15
-0.55
-0.81
-0.87
-0.74
-0.47
-0.18
-0.01
-0.04
-0.23
-0.49
-0.68
-0.74
-0.66
-0.52
-0.36
-0.18
0.02
0.28
0.54
0.72
0.72
0.49
0.09
-0.35
-0.66
-0.74
-0.60
-0.33
-0.11
-0.01
-0.03
-0.08
-0.06
0.04
0.18
0.24
0.15
-0.06
-0.28
-0.39
-0.35
-0.21
-0.10
-0.11
-0.21
-0.30
-0.31
-0.21
-0.08
-0.02
-0.09
-0.25
-0.38
-0.35
-0.14
0.17
0.47
0.63
0.60
0.46
0.28
0.14
0.04
-0.04
-0.18
-0.39
-0.63
-0.82
-0.89
-0.80
-0.61
-0.41
-0.28
-0.23
-0.20
-0.12
0.08
0.35
0.58
0.66
0.53
0.24
-0.07
-0.25
-0.20
0.03
0.36
0.65
0.85
0.97
1.04
1.09
1.09
0.98
0.71
0.28
-0.21
-0.62
-0.80
-0.70
-0.36
0.10
0.51
0.74
0.76
0.58
0.34
0.17
0.15
0.27
0.44
0.54
0.47
0.23
-0.09
-0.36
-0.52
-0.56
-0.56
-0.61
-0.73
-0.87
-0.92
-0.80
-0.55
-0.25
-0.05
-0.03
-0.18
-0.42
-0.61
-0.66
-0.51
-0.24
0.09
0.38
0.59
0.75
0.89
1.03
1.13
1.12
0.94
0.59
0.15
-0.27
-0.56
-0.70
-0.72
-0.68
-0.63
-0.61
-0.60
-0.59
-0.59
-0.60
-0.60
-0.58
-0.52
-0.40
-0.27
-0.15
-0.09
-0.08
-0.10
-0.12
-0.11
-0.08
-0.02
0.04
0.13
0.24
0.36
0.49
0.59
0.65
0.69
0.75
0.86
1.00
1.09
1.02
0.73
0.24
-0.30
-0.73
-0.90
-0.79
-0.49
-0.12
0.22
0.48
0.64
0.68
0.58
0.31
-0.08
-0.50
-0.81
-0.91
-0.78
-0.52
-0.24
-0.04
0.03
0.05
0.08
0.18
0.33
0.49
0.57
0.55
0.45
0.35
0.35
0.47
0.67
0.83
0.82
0.58
0.17
-0.27
-0.58
-0.65
-0.48
-0.19
0.06
0.14
0.02
-0.26
-0.60
-0.91
-1.13
-1.23
-1.17
-0.95
-0.59
-0.12
0.34
0.70
0.84
0.77
0.55
0.31
0.17
0.17
0.26
0.29
0.18
-0.11
-0.47
-0.73
-0.76
-0.49
-0.02
0.51
0.94
1.18
1.25
1.22
1.14
1.01
0.78
0.42
-0.06
-0.55
-0.92
-1.08
-1.01
-0.82
-0.64
-0.57
-0.64
-0.78
-0.90
-0.95
-0.89
-0.77
-0.63
-0.47
-0.29
-0.08
0.15
0.34
0.47
0.50
0.47
0.41
0.35
0.28
0.17
0.01
-0.15
-0.22
-0.15
0.06
0.30
0.43
0.36
0.13
-0.12
-0.27
-0.25
-0.11
0.01
0.02
-0.09
-0.24
-0.35
-0.38
-0.32
-0.23
-0.10
0.09
0.36
0.69
1.01
1.21
1.24
1.08
0.82
0.55
0.34
0.19
0.08
-0.05
-0.22
-0.41
-0.55
-0.60
-0.53
-0.37
-0.21
-0.13
-0.18
-0.35
-0.55
-0.70
-0.73
-0.59
-0.33
0.01
0.35
0.65
0.90
1.07
1.12
1.03
0.76
0.37
-0.03
-0.30
-0.37
-0.24
0.00
0.22
0.29
0.19
-0.03
-0.29
-0.51
-0.66
-0.72
-0.69
-0.57
-0.33
0.01
0.38
0.69
0.85
0.81
0.62
0.35
0.11
-0.02
-0.01
0.09
0.19
0.23
0.20
0.16
0.15
0.16
0.13
0.00
-0.25
-0.56
-0.83
-0.97
-0.94
-0.82
-0.67
-0.55
-0.42
-0.23
0.06
0.34
0.45
0.24
-0.28
-0.94
-1.48
-1.68
-1.48
-1.00
-0.45
-0.00
0.26
0.35
0.32
0.21
0.04
-0.14
-0.24
-0.15
0.15
0.60
1.00
1.19
1.08
0.75
0.40
0.19
0.21
0.41
0.63
0.70
0.52
0.10
-0.44
-0.94
-1.27
-1.35
-1.22
-0.96
-0.69
-0.48
-0.37
-0.32
-0.27
-0.19
-0.06
0.11
0.31
0.51
0.73
0.96
1.16
1.30
1.32
1.20
0.93
0.58
0.22
-0.02
-0.06
0.12
0.47
0.82
0.99
0.86
0.43
-0.18
-0.75
-1.11
-1.18
-0.97
-0.61
-0.22
0.06
0.20
0.20
0.14
0.09
0.14
0.33
0.64
0.99
1.23
1.24
0.98
0.48
-0.12
-0.66
-1.01
-1.12
-0.99
-0.70
-0.31
0.08
0.41
0.60
0.66
0.59
0.46
0.32
0.22
0.13
0.06
-0.01
-0.05
-0.03
0.05
0.15
0.17
0.06
-0.19
-0.50
-0.74
-0.82
-0.69
-0.41
-0.10
0.12
0.16
-0.01
-0.33
-0.69
-0.97
-1.06
-0.95
-0.64
-0.26
0.09
0.27
0.25
0.03
-0.30
-0.60
-0.79
-0.79
-0.66
-0.46
-0.28
-0.14
-0.00
0.16
0.37
0.57
0.67
0.61
0.37
0.04
-0.26
-0.44
-0.44
-0.27
0.02
0.37
0.72
1.01
1.15
1.07
0.75
0.22
-0.37
-0.85
-1.08
-0.98
-0.62
-0.13
0.34
0.67
0.82
0.79
0.60
0.30
-0.08
-0.45
-0.73
-0.84
-0.74
-0.46
-0.10
0.22
0.41
0.43
0.33
0.18
0.04
-0.03
-0.04
-0.00
0.06
0.11
0.16
0.19
0.22
0.23
0.23
0.19
0.10
-0.05
-0.20
-0.31
-0.28
-0.08
0.28
0.73
1.16
1.48
1.61
1.55
1.29
0.84
0.27
-0.34
-0.84
-1.10
-1.00
-0.59
0.01
0.54
0.80
0.70
0.32
-0.14
-0.46
-0.52
-0.38
-0.20
-0.18
-0.41
-0.80
-1.20
-1.43
-1.41
-1.21
-0.93
-0.68
-0.49
-0.29
-0.04
0.23
0.45
0.51
0.40
0.19
0.04
0.05
0.23
0.49
0.72
0.86
0.93
0.97
0.99
0.93
0.68
0.22
-0.36
-0.90
-1.16
-1.06
-0.62
-0.02
0.57
0.99
1.20
1.21
1.07
0.82
0.47
0.08
-0.30
-0.62
-0.87
-1.05
-1.22
-1.40
-1.55
-1.59
-1.41
-1.01
-0.45
0.09
0.45
0.54
0.38
0.11
-0.14
-0.24
-0.17
-0.00
0.17
0.27
0.27
0.21
0.17
0.21
0.35
0.56
0.74
0.79
0.62
0.26
-0.19
-0.56
-0.72
-0.62
-0.35
-0.06
0.11
0.10
-0.04
-0.17
-0.21
-0.12
0.05
0.23
0.35
0.43
0.47
0.49
0.49
0.42
0.30
0.12
-0.08
-0.24
-0.34
-0.32
-0.19
0.01
0.20
0.30
0.24
0.06
-0.17
-0.31
-0.31
-0.16
0.04
0.20
0.28
0.29
0.25
0.16
-0.03
-0.34
-0.74
-1.11
-1.30
-1.19
-0.77
-0.17
0.43
0.84
0.95
0.77
0.44
0.08
-0.17
-0.28
-0.28
-0.24
-0.22
-0.25
-0.30
-0.30
-0.22
-0.05
0.16
0.34
0.44
0.43
0.36
0.28
0.23
0.23
0.28
0.37
0.49
0.60
0.68
0.69
0.61
0.44
0.23
0.05
-0.07
-0.12
-0.13
-0.14
-0.17
-0.21
-0.21
-0.17
-0.09
-0.01
0.06
0.13
0.27
0.50
0.80
1.07
1.15
0.98
0.55
0.00
-0.50
-0.80
-0.84
-0.65
-0.34
-0.03
0.21
0.33
0.33
0.22
0.05
-0.11
-0.20
-0.21
-0.19
-0.22
-0.39
-0.69
-1.07
-1.39
-1.54
-1.47
-1.25
-0.96
-0.72
-0.59
-0.56
-0.58
-0.58
-0.50
-0.32
-0.05
0.28
0.57
0.72
0.69
0.50
0.24
0.02
-0.07
-0.00
0.16
0.30
0.37
0.34
0.29
0.30
0.40
0.55
0.69
0.75
0.72
0.64
0.56
0.51
0.47
0.40
0.24
-0.02
-0.30
-0.49
-0.50
-0.31
-0.02
0.24
0.32
0.20
-0.04
-0.23
-0.24
0.00
0.41
0.82
1.05
1.00
0.69
0.20
-0.32
-0.73
-0.94
-0.92
-0.71
-0.38
-0.01
0.34
0.61
0.75
0.71
0.47
0.06
-0.41
-0.79
-0.97
-0.90
-0.64
-0.36
-0.18
-0.17
-0.27
-0.39
-0.44
-0.39
-0.30
-0.25
-0.27
-0.33
-0.38
-0.39
-0.39
-0.43
-0.52
-0.64
-0.67
-0.54
-0.21
0.23
0.63
0.86
0.90
0.76
0.55
0.32
0.11
-0.11
-0.34
-0.54
-0.62
-0.52
-0.23
0.18
0.60
0.91
1.02
0.94
0.73
0.47
0.22
0.02
-0.10
-0.14
-0.11
-0.02
0.07
0.10
0.02
-0.17
-0.42
-0.61
-0.66
-0.52
-0.22
0.13
0.41
0.53
0.46
0.24
-0.05
-0.31
-0.46
-0.46
-0.31
-0.05
0.24
0.50
0.67
0.72
0.65
0.52
0.37
0.27
0.27
0.35
0.47
0.55
0.55
0.45
0.27
0.05
-0.19
-0.44
-0.70
-0.89
-0.94
-0.79
-0.40
0.12
0.63
0.93
0.94
0.67
0.28
-0.05
-0.21
-0.18
-0.06
0.03
-0.01
-0.19
-0.43
-0.61
-0.64
-0.53
-0.33
-0.11
0.07
0.22
0.35
0.47
0.52
0.45
0.21
-0.15
-0.51
-0.70
-0.61
-0.25
0.26
0.72
0.96
0.91
0.62
0.23
-0.13
-0.38
-0.53
-0.62
-0.71
-0.81
-0.87
-0.84
-0.71
-0.49
-0.26
-0.08
0.03
0.05
0.02
-0.02
-0.02
0.04
0.15
0.30
0.44
0.55
0.61
0.63
0.66
0.70
0.72
0.64
0.39
-0.01
-0.45
-0.77
-0.83
-0.61
-0.25
0.10
0.29
0.30
0.22
0.16
0.20
0.32
0.48
0.61
0.67
0.65
0.54
0.33
0.02
-0.38
-0.80
-1.18
-1.43
-1.55
-1.56
-1.48
-1.34
-1.13
-0.86
-0.58
-0.38
-0.36
-0.52
-0.76
-0.94
-0.89
-0.57
-0.03
0.56
1.02
1.26
1.27
1.13
0.94
0.75
0.60
0.48
0.39
0.36
0.39
0.48
0.59
0.66
0.64
0.53
0.37
0.23
0.13
0.07
0.00
-0.09
-0.19
-0.23
-0.18
-0.03
0.14
0.25
0.23
0.11
-0.01
-0.05
0.03
0.20
0.38
0.49
0.50
0.45
0.38
0.32
0.27
0.21
0.14
0.06
0.01
-0.03
-0.07
-0.13
-0.24
-0.39
-0.52
-0.58
-0.53
-0.37
-0.18
-0.06
-0.10
-0.33
-0.66
-0.96
-1.05
-0.86
-0.42
0.10
0.50
0.66
0.57
0.33
0.10
-0.00
0.07
0.29
0.58
0.80
0.88
0.75
0.41
-0.05
-0.54
-0.91
-1.11
-1.13
-1.02
-0.85
-0.66
-0.44
-0.24
-0.05
0.07
0.14
0.18
0.24
0.36
0.51
0.63
0.64
0.50
0.26
0.03
-0.08
0.01
0.26
0.58
0.83
0.89
0.71
0.34
-0.10
-0.48
-0.73
-0.83
-0.85
-0.82
-0.75
-0.61
-0.38
-0.07
0.28
0.57
0.74
0.75
0.63
0.42
0.19
-0.01
-0.15
-0.23
-0.26
-0.28
-0.31
-0.35
-0.36
-0.28
-0.10
0.16
0.38
0.48
0.40
0.20
-0.01
-0.12
-0.07
0.13
0.39
0.55
0.53
0.29
-0.12
-0.56
-0.85
-0.87
-0.59
-0.13
0.36
0.69
0.78
0.64
0.34
-0.04
-0.43
-0.78
-1.04
-1.12
-0.95
-0.53
0.05
0.62
0.98
0.99
0.67
0.16
-0.34
-0.64
-0.66
-0.47
-0.20
0.04
0.20
0.32
0.48
0.69
0.91
1.02
0.95
0.69
0.33
-0.01
-0.25
-0.40
-0.52
-0.64
-0.75
-0.79
-0.72
-0.51
-0.20
0.15
0.48
0.76
0.99
1.19
1.35
1.44
1.40
1.21
0.85
0.39
-0.09
-0.47
-0.67
-0.67
-0.54
-0.35
-0.19
-0.10
-0.05
-0.04
-0.07
-0.18
-0.40
-0.71
-1.04
-1.31
-1.43
-1.41
-1.28
-1.08
-0.89
-0.75
-0.68
-0.69
-0.72
-0.72
-0.61
-0.36
-0.00
0.37
0.68
0.87
0.96
0.98
0.94
0.82
0.60
0.32
0.07
-0.04
0.05
0.29
0.56
0.69
0.62
0.39
0.12
-0.05
-0.04
0.13
0.37
0.59
0.70
0.70
0.59
0.38
0.12
-0.17
-0.43
-0.57
-0.56
-0.39
-0.15
0.05
0.10
-0.06
-0.38
-0.74
-1.02
-1.11
-0.98
-0.68
-0.27
0.13
0.45
0.63
0.65
0.53
0.30
0.09
-0.05
-0.05
0.03
0.12
0.10
-0.07
-0.36
-0.65
-0.83
-0.86
-0.75
-0.60
-0.45
-0.30
-0.12
0.14
0.42
0.62
0.64
0.45
0.10
-0.25
-0.44
-0.38
-0.07
0.38
0.82
1.12
1.18
0.99
0.63
0.19
-0.19
-0.43
-0.49
-0.40
-0.24
-0.06
0.09
0.20
0.27
0.29
0.23
0.10
-0.07
-0.21
-0.27
-0.24
-0.15
-0.07
-0.04
-0.08
-0.15
-0.21
-0.23
-0.21
-0.17
-0.11
-0.06
-0.02
0.02
0.06
0.09
0.13
0.16
0.19
0.18
0.12
-0.01
-0.19
-0.36
-0.46
-0.41
-0.21
0.10
0.43
0.65
0.68
0.51
0.20
-0.14
-0.41
-0.54
-0.54
-0.42
-0.24
-0.04
0.15
0.26
0.25
0.13
-0.03
-0.11
-0.03
0.23
0.56
0.83
0.91
0.76
0.45
0.09
-0.22
-0.43
-0.54
-0.58
-0.55
-0.46
-0.28
-0.05
0.17
0.29
0.27
0.12
-0.07
-0.20
-0.20
-0.09
0.08
0.21
0.22
0.13
0.00
-0.08
-0.06
0.04
0.14
0.16
0.07
-0.11
-0.32
-0.46
-0.48
-0.36
-0.14
0.12
0.35
0.48
0.52
0.46
0.38
0.34
0.39
0.56
0.80
0.99
1.00
0.77
0.31
-0.23
-0.67
-0.84
-0.68
-0.31
0.10
0.38
0.45
0.39
0.29
0.21
0.15
0.04
-0.19
-0.48
-0.74
-0.82
-0.67
-0.33
0.07
0.37
0.45
0.30
-0.01
-0.34
-0.56
-0.57
-0.39
-0.10
0.14
0.24
0.14
-0.11
-0.40
-0.63
-0.76
-0.76
-0.67
-0.50
-0.28
-0.02
0.27
0.52
0.68
0.67
0.49
0.18
-0.18
-0.46
-0.57
-0.48
-0.24
0.04
0.24
0.28
0.15
-0.05
-0.24
-0.30
-0.18
0.08
0.42
0.72
0.92
0.96
0.86
0.67
0.43
0.19
-0.01
-0.15
-0.19
-0.12
0.03
0.21
0.33
0.31
0.16
-0.07
-0.27
-0.41
-0.50
-0.61
-0.75
-0.90
-0.95
-0.80
-0.47
-0.09
0.17
0.21
0.06
-0.14
-0.23
-0.09
0.23
0.59
0.83
0.86
0.66
0.29
-0.12
-0.46
-0.63
-0.57
-0.29
0.12
0.50
0.71
0.68
0.46
0.17
-0.02
-0.06
0.04
0.18
0.30
0.38
0.45
0.55
0.67
0.72
0.61
0.31
-0.11
-0.52
-0.77
-0.82
-0.71
-0.54
-0.43
-0.41
-0.48
-0.56
-0.62
-0.64
-0.63
-0.62
-0.59
-0.54
-0.46
-0.36
-0.26
-0.17
-0.15
-0.20
-0.32
-0.46
-0.55
-0.50
-0.28
0.10
0.51
0.82
0.96
0.92
0.81
0.73
0.73
0.76
0.75
0.64
0.48
0.38
0.42
0.60
0.81
0.87
0.65
0.18
-0.41
-0.92
-1.21
-1.24
-1.07
-0.81
-0.57
-0.39
-0.28
-0.21
-0.15
-0.10
-0.02
0.11
0.32
0.60
0.87
1.01
0.92
0.57
0.06
-0.44
-0.74
-0.75
-0.54
-0.26
-0.08
-0.08
-0.22
-0.38
-0.44
-0.36
-0.22
-0.13
-0.19
-0.40
-0.66
-0.81
-0.78
-0.54
-0.20
0.11
0.30
0.37
0.39
0.43
0.52
0.61
0.67
0.67
0.64
0.63
0.67
0.72
0.75
0.68
0.51
0.27
0.05
-0.11
-0.18
-0.20
-0.21
-0.24
-0.29
-0.34
-0.33
-0.21
0.02
0.30
0.51
0.55
0.36
0.00
-0.37
-0.59
-0.57
-0.31
0.07
0.45
0.71
0.79
0.70
0.48
0.19
-0.08
-0.28
-0.36
-0.36
-0.31
-0.28
-0.27
-0.22
-0.08
0.18
0.49
0.71
0.70
0.41
-0.07
-0.56
-0.89
-0.96
-0.81
-0.55
-0.31
-0.16
-0.10
-0.10
-0.13
-0.18
-0.24
-0.31
-0.36
-0.37
-0.31
-0.22
-0.12
-0.04
-0.00
0.01
0.00
-0.01
-0.02
-0.03
-0.02
-0.00
0.04
0.08
0.12
0.14
0.17
0.23
0.32
0.40
0.41
0.33
0.14
-0.09
-0.27
-0.32
-0.25
-0.08
0.08
0.15
0.11
-0.02
-0.14
-0.17
-0.08
0.11
0.32
0.49
0.56
0.52
0.41
0.26
0.11
-0.02
-0.14
-0.24
-0.31
-0.36
-0.39
-0.37
-0.29
-0.16
0.02
0.21
0.38
0.49
0.53
0.48
0.34
0.11
-0.19
-0.52
-0.79
-0.89
-0.77
-0.44
-0.00
0.38
0.60
0.64
0.59
0.57
0.63
0.75
0.83
0.78
0.58
0.27
-0.05
-0.31
-0.52
-0.70
-0.88
-0.98
-0.92
-0.66
-0.25
0.13
0.29
0.12
-0.32
-0.83
-1.16
-1.16
-0.84
-0.33
0.14
0.41
0.43
0.24
-0.07
-0.42
-0.74
-0.99
-1.11
-1.04
-0.77
-0.32
0.23
0.75
1.13
1.29
1.24
1.01
0.69
0.36
0.12
0.04
0.18
0.51
0.94
1.34
1.57
1.54
1.28
0.88
0.49
0.20
0.08
0.10
0.21
0.35
0.46
0.52
0.52
0.42
0.21
-0.10
-0.45
-0.77
-0.96
-1.00
-0.92
-0.79
-0.70
-0.66
-0.66
-0.64
-0.56
-0.48
-0.45
-0.52
-0.67
-0.82
-0.85
-0.74
-0.51
-0.28
-0.10
0.01
0.11
0.27
0.49
0.71
0.82
0.74
0.48
0.14
-0.14
-0.26
-0.17
0.05
0.29
0.44
0.48
0.41
0.29
0.16
0.03
-0.11
-0.28
-0.49
-0.67
-0.77
-0.74
-0.60
-0.42
-0.29
-0.25
-0.29
-0.34
-0.31
-0.16
0.07
0.28
0.37
0.34
0.25
0.21
0.28
0.45
0.64
0.73
0.66
0.45
0.15
-0.18
-0.48
-0.73
-0.85
-0.77
-0.46
0.06
0.62
1.03
1.15
0.94
0.53
0.08
-0.23
-0.38
-0.42
-0.45
-0.56
-0.73
-0.91
-0.99
-0.92
-0.68
-0.33
-0.00
0.19
0.17
-0.07
-0.41
-0.67
-0.68
-0.35
0.26
0.96
1.53
1.80
1.75
1.48
1.14
0.86
0.69
0.59
0.51
0.43
0.36
0.29
0.25
0.22
0.16
0.09
0.01
-0.07
-0.12
-0.13
-0.10
-0.05
-0.02
-0.01
-0.04
-0.13
-0.24
-0.35
-0.43
-0.47
-0.45
-0.40
-0.33
-0.27
-0.24
-0.27
-0.37
-0.53
-0.70
-0.81
-0.82
-0.70
-0.50
-0.27
-0.08
0.04
0.06
0.02
-0.06
-0.14
-0.17
-0.14
-0.05
0.12
0.31
0.49
0.61
0.62
0.51
0.32
0.13
0.03
0.04
0.13
0.20
0.16
-0.03
-0.33
-0.59
-0.69
-0.58
-0.31
0.04
0.34
0.53
0.60
0.57
0.46
0.29
0.06
-0.18
-0.38
-0.47
-0.41
-0.22
0.06
0.36
0.61
0.77
0.79
0.67
0.45
0.16
-0.15
-0.43
-0.67
-0.84
-0.93
-0.92
-0.82
-0.63
-0.42
-0.23
-0.09
0.04
0.21
0.47
0.82
1.17
1.40
1.39
1.12
0.67
0.18
-0.20
-0.41
-0.48
-0.50
-0.57
-0.71
-0.87
-0.92
-0.79
-0.46
-0.00
0.45
0.75
0.88
0.87
0.77
0.64
0.48
0.23
-0.10
-0.49
-0.83
-1.00
-0.91
-0.61
-0.19
0.20
0.45
0.49
0.35
0.10
-0.17
-0.36
-0.38
-0.19
0.14
0.48
0.68
0.64
0.40
0.09
-0.14
-0.18
-0.06
0.09
0.16
0.10
-0.01
-0.05
0.05
0.29
0.53
0.64
0.53
0.21
-0.21
-0.62
-0.91
-1.02
-0.93
-0.67
-0.34
-0.02
0.16
0.15
-0.04
-0.30
-0.50
-0.52
-0.35
-0.05
0.28
0.57
0.77
0.88
0.89
0.79
0.57
0.24
-0.12
-0.40
-0.51
-0.42
-0.18
0.14
0.41
0.57
0.59
0.46
0.20
-0.13
-0.47
-0.73
-0.85
-0.85
-0.76
-0.68
-0.65
-0.69
-0.71
-0.65
-0.47
-0.24
-0.07
-0.09
-0.29
-0.59
-0.80
-0.76
-0.40
0.20
0.84
1.30
1.45
1.25
0.77
0.14
-0.47
-0.95
-1.18
-1.14
-0.85
-0.40
0.08
0.48
0.73
0.85
0.90
0.94
0.97
0.97
0.89
0.71
0.49
0.32
0.25
0.32
0.44
0.53
0.50
0.31
0.02
-0.30
-0.54
-0.65
-0.65
-0.61
-0.57
-0.54
-0.50
-0.39
-0.16
0.17
0.51
0.76
0.83
0.67
0.34
-0.06
-0.40
-0.56
-0.52
-0.35
-0.17
-0.10
-0.19
-0.37
-0.53
-0.52
-0.30
0.08
0.51
0.85
1.01
0.98
0.78
0.48
0.13
-0.22
-0.49
-0.64
-0.65
-0.52
-0.34
-0.17
-0.07
-0.07
-0.13
-0.22
-0.30
-0.34
-0.36
-0.34
-0.29
-0.22
-0.13
-0.02
0.09
0.18
0.20
0.15
0.02
-0.14
-0.26
-0.30
-0.20
-0.02
0.14
0.17
0.05
-0.17
-0.38
-0.46
-0.38
-0.19
0.01
0.12
0.14
0.12
0.12
0.15
0.23
0.28
0.30
0.29
0.28
0.31
0.40
0.54
0.69
0.81
0.88
0.87
0.79
0.64
0.43
0.21
0.02
-0.11
-0.16
-0.16
-0.15
-0.19
-0.34
-0.56
-0.77
-0.89
-0.84
-0.63
-0.32
-0.03
0.16
0.21
0.15
0.02
-0.12
-0.21
-0.23
-0.17
-0.03
0.16
0.34
0.47
0.51
0.46
0.32
0.11
-0.13
-0.35
-0.50
-0.51
-0.35
-0.04
0.32
0.62
0.77
0.72
0.52
0.24
-0.04
-0.26
-0.43
-0.56
-0.68
-0.77
-0.84
-0.87
-0.84
-0.76
-0.62
-0.42
-0.19
0.03
0.20
0.30
0.36
0.41
0.49
0.55
0.55
0.44
0.21
-0.07
-0.29
-0.36
-0.29
-0.11
0.12
0.34
0.56
0.74
0.86
0.84
0.63
0.29
-0.08
-0.32
-0.32
-0.10
0.21
0.43
0.46
0.26
-0.09
-0.47
-0.79
-0.98
-1.04
-0.97
-0.76
-0.45
-0.08
0.30
0.60
0.80
0.89
0.92
0.91
0.87
0.75
0.51
0.17
-0.21
-0.52
-0.67
-0.66
-0.56
-0.50
-0.54
-0.67
-0.80
-0.81
-0.65
-0.34
0.02
0.35
0.55
0.62
0.57
0.42
0.21
-0.05
-0.32
-0.54
-0.65
-0.64
-0.51
-0.32
-0.13
0.01
0.08
0.10
0.11
0.12
0.16
0.22
0.29
0.35
0.39
0.39
0.33
0.19
-0.02
-0.26
-0.44
-0.48
-0.36
-0.13
0.11
0.27
0.33
0.31
0.31
0.38
0.53
0.69
0.81
0.81
0.70
0.51
0.27
0.02
-0.23
-0.47
-0.66
-0.78
-0.80
-0.73
-0.57
-0.37
-0.17
0.01
0.13
0.20
0.21
0.21
0.23
0.29
0.40
0.55
0.71
0.81
0.83
0.73
0.53
0.25
-0.03
-0.26
-0.39
-0.42
-0.35
-0.22
-0.01
0.24
0.49
0.67
0.72
0.62
0.41
0.17
-0.02
-0.16
-0.30
-0.53
-0.84
-1.14
-1.26
-1.08
-0.63
-0.08
0.33
0.40
0.09
-0.46
-1.04
-1.43
-1.52
-1.29
-0.86
-0.39
-0.03
0.11
0.03
-0.18
-0.38
-0.41
-0.21
0.15
0.54
0.82
0.92
0.85
0.71
0.57
0.45
0.32
0.15
-0.07
-0.28
-0.44
-0.47
-0.37
-0.13
0.21
0.59
0.90
1.05
0.98
0.71
0.38
0.14
0.11
0.29
0.51
0.60
0.44
0.06
-0.38
-0.70
-0.82
-0.76
-0.62
-0.51
-0.45
-0.42
-0.37
-0.28
-0.15
-0.02
0.13
0.29
0.45
0.57
0.59
0.46
0.19
-0.14
-0.44
-0.62
-0.65
-0.55
-0.37
-0.18
-0.04
0.02
0.02
-0.03
-0.07
-0.08
-0.07
-0.04
0.04
0.19
0.43
0.75
1.08
1.30
1.31
1.06
0.62
0.14
-0.24
-0.44
-0.45
-0.36
-0.26
-0.19
-0.17
-0.17
-0.13
-0.04
0.12
0.32
0.53
0.66
0.64
0.42
0.00
-0.52
-1.00
-1.32
-1.38
-1.20
-0.87
-0.49
-0.15
0.11
0.27
0.32
0.26
0.12
-0.06
-0.21
-0.25
-0.15
0.10
0.40
0.65
0.70
0.51
0.14
-0.31
-0.65
-0.78
-0.70
-0.51
-0.32
-0.22
-0.17
-0.11
0.05
0.33
0.64
0.86
0.91
0.78
0.55
0.31
0.13
0.02
-0.07
-0.18
-0.29
-0.35
-0.32
-0.18
0.03
0.24
0.36
0.35
0.18
-0.08
-0.36
-0.55
-0.58
-0.44
-0.18
0.08
0.23
0.21
0.07
-0.10
-0.16
-0.06
0.19
0.46
0.65
0.66
0.50
0.23
-0.07
-0.34
-0.57
-0.74
-0.88
-0.97
-0.96
-0.83
-0.57
-0.18
0.24
0.61
0.83
0.86
0.72
0.47
0.22
0.04
-0.06
-0.09
-0.11
-0.14
-0.19
-0.22
-0.19
-0.12
0.02
0.20
0.39
0.56
0.63
0.56
0.35
0.06
-0.22
-0.37
-0.38
-0.27
-0.17
-0.15
-0.23
-0.37
-0.48
-0.50
-0.44
-0.32
-0.18
-0.02
0.16
0.35
0.50
0.54
0.41
0.15
-0.13
-0.28
-0.21
0.06
0.40
0.67
0.79
0.75
0.65
0.58
0.53
0.45
0.28
0.02
-0.24
-0.37
-0.31
-0.09
0.14
0.24
0.14
-0.14
-0.50
-0.84
-1.10
-1.24
-1.26
-1.15
-0.94
-0.63
-0.29
0.03
0.29
0.49
0.65
0.75
0.79
0.76
0.68
0.58
0.52
0.54
0.61
0.67
0.65
0.52
0.32
0.13
0.03
0.08
0.24
0.43
0.53
0.49
0.29
0.01
-0.25
-0.38
-0.37
-0.29
-0.25
-0.32
-0.49
-0.66
-0.69
-0.54
-0.24
0.06
0.19
0.05
-0.33
-0.82
-1.24
-1.47
-1.44
-1.20
-0.84
-0.47
-0.20
-0.05
-0.05
-0.16
-0.33
-0.52
-0.68
-0.73
-0.61
-0.29
0.18
0.66
0.98
1.05
0.87
0.57
0.32
0.24
0.34
0.50
0.58
0.52
0.34
0.16
0.12
0.27
0.56
0.89
1.09
1.06
0.77
0.31
-0.17
-0.49
-0.53
-0.27
0.15
0.54
0.72
0.65
0.38
0.08
-0.10
-0.14
-0.10
-0.10
-0.22
-0.44
-0.68
-0.82
-0.79
-0.61
-0.34
-0.10
0.04
0.07
0.03
-0.02
0.00
0.12
0.32
0.52
0.67
0.69
0.62
0.51
0.43
0.43
0.53
0.64
0.66
0.50
0.13
-0.38
-0.88
-1.24
-1.33
-1.16
-0.79
-0.33
0.11
0.48
0.75
0.89
0.85
0.60
0.17
-0.36
-0.83
-1.12
-1.13
-0.90
-0.56
-0.27
-0.13
-0.18
-0.34
-0.51
-0.54
-0.40
-0.13
0.13
0.25
0.18
-0.01
-0.19
-0.25
-0.14
0.05
0.21
0.23
0.11
-0.08
-0.21
-0.22
-0.11
0.07
0.27
0.44
0.56
0.64
0.67
0.66
0.59
0.50
0.42
0.38
0.37
0.35
0.27
0.09
-0.16
-0.40
-0.54
-0.53
-0.39
-0.24
-0.17
-0.22
-0.36
-0.51
-0.61
-0.63
-0.60
-0.53
-0.40
-0.17
0.16
0.50
0.72
0.71
0.45
0.05
-0.31
-0.47
-0.39
-0.15
0.10
0.25
0.29
0.26
0.25
0.30
0.39
0.47
0.51
0.49
0.42
0.35
0.27
0.19
0.10
0.04
0.02
0.08
0.19
0.29
0.31
0.20
-0.00
-0.22
-0.35
-0.31
-0.10
0.20
0.49
0.66
0.67
0.55
0.36
0.20
0.09
-0.02
-0.19
-0.50
-0.90
-1.30
-1.56
-1.56
-1.29
-0.82
-0.30
0.15
0.45
0.60
0.63
0.58
0.46
0.27
0.03
-0.20
-0.34
-0.35
-0.22
-0.00
0.21
0.33
0.34
0.26
0.16
0.12
0.19
0.35
0.55
0.69
0.70
0.54
0.22
-0.16
-0.48
-0.66
-0.64
-0.48
-0.29
-0.16
-0.16
-0.29
-0.54
-0.86
-1.19
-1.45
-1.53
-1.38
-0.97
-0.43
0.09
0.41
0.44
0.23
-0.08
-0.30
-0.31
-0.08
0.34
0.82
1.23
1.42
1.33
0.95
0.40
-0.15
-0.55
-0.71
-0.69
-0.62
-0.62
-0.78
-1.05
-1.34
-1.52
-1.59
-1.57
-1.56
-1.58
-1.65
-1.74
-1.83
-1.91
-2.06
-2.32
-2.75
-3.39
-4.20
-5.12
-6.04
-6.86
-7.51
-7.93
-8.12
-8.11
-7.91
-7.57
-7.18
-6.93
-7.12
-8.00
-9.68
-12.05
-14.77
-17.43
-19.72
-21.49
-22.80
-23.75
-24.45
-24.87
-24.95
-24.63
-23.90
-22.89
-21.73
-20.45
-18.92
-16.79
-13.61
-9.08
-3.18
3.66
10.68
17.01
22.00
25.40
27.41
28.50
29.16
29.68
30.06
30.17
29.80
28.90
27.51
25.80
23.98
22.19
20.53
18.96
17.43
15.82
14.07
12.12
9.99
7.77
5.65
3.83
2.50
1.74
1.50
1.61
1.87
2.09
2.12
1.85
1.24
0.32
-0.81
-1.96
-2.95
-3.66
-4.11
-4.37
-4.54
-4.67
-4.70
-4.53
-4.18
-3.73
-3.37
-3.30
-3.62
-4.35
-5.39
-6.64
-7.93
-9.14
-10.10
-10.63
-10.48
-9.34
-6.99
-3.44
0.90
5.26
8.78
10.78
11.05
9.84
7.64
4.91
2.01
-0.65
-2.41
-2.36
0.33
5.84
13.39
21.35
27.90
31.89
33.33
33.25
33.00
33.45
34.54
35.37
34.82
32.18
27.54
21.66
15.58
10.24
6.25
3.82
2.86
2.96
3.42
3.33
1.87
-1.39
-6.25
-11.88
-17.20
-21.28
-23.69
-24.53
-24.22
-23.20
-21.74
-20.00
-18.15
-16.42
-15.09
-14.31
-14.02
-13.97
-13.80
-13.25
-12.26
-10.95
-9.56
-8.34
-7.40
-6.75
-6.25
-5.77
-5.17
-4.41
-3.54
-2.64
-1.83
-1.21
-0.83
-0.68
-0.67
-0.69
-0.64
-0.45
-0.16
0.12
0.29
0.28
0.10
-0.13
-0.29
-0.26
-0.07
0.19
0.38
0.40
0.26
0.06
-0.07
-0.05
0.09
0.28
0.43
0.50
0.54
0.61
0.75
0.95
1.14
1.23
1.18
1.02
0.81
0.61
0.44
0.30
0.15
-0.02
-0.19
-0.31
-0.34
-0.22
0.09
0.61
1.28
1.97
2.47
2.60
2.26
1.55
0.70
-0.01
-0.37
-0.33
-0.01
0.37
0.65
0.77
0.81
0.91
1.21
1.74
2.43
3.07
3.47
3.48
3.10
2.50
1.93
1.69
1.93
2.67
3.74
4.84
5.60
5.62
4.65
2.64
-0.14
-3.18
-5.86
-7.73
-8.68
-8.92
-8.82
-8.65
-8.43
-8.02
-7.26
-6.20
-5.10
-4.35
-4.19
-4.62
-5.41
-6.22
-6.72
-6.66
-5.92
-4.45
-2.35
0.11
2.55
4.60
6.02
6.82
7.23
7.47
7.71
7.95
8.05
7.91
7.47
6.76
5.83
4.76
3.62
2.51
1.56
0.86
0.46
0.33
0.38
0.51
0.66
0.78
0.82
0.72
0.39
-0.21
-1.03
-1.99
-2.95
-3.80
-4.47
-4.98
-5.38
-5.77
-6.19
-6.66
-7.09
-7.37
-7.44
-7.36
-7.31
-7.59
-8.36
-9.49
-10.47
-10.55
-9.11
-5.98
-1.72
2.66
6.08
7.87
8.02
7.07
5.76
4.61
3.76
3.07
2.36
1.61
1.01
0.78
1.06
1.75
2.58
3.25
3.51
3.24
2.55
1.61
0.71
0.08
-0.15
0.00
0.38
0.80
1.07
1.16
1.12
1.05
1.04
1.12
1.23
1.30
1.28
1.17
1.04
0.93
0.83
0.68
0.43
0.09
-0.27
-0.56
-0.69
-0.64
-0.45
-0.19
0.09
0.35
0.56
0.69
0.68
0.51
0.20
-0.16
-0.44
-0.55
-0.48
-0.34
-0.28
-0.38
-0.63
-0.90
-1.04
-0.93
-0.60
-0.18
0.14
0.23
0.07
-0.20
-0.40
-0.39
-0.17
0.12
0.32
0.32
0.17
0.01
-0.01
0.20
0.53
0.84
0.96
0.86
0.63
0.39
0.23
0.16
0.12
0.03
-0.12
-0.31
-0.46
-0.55
-0.60
-0.62
-0.65
-0.66
-0.64
-0.55
-0.43
-0.30
-0.18
-0.08
0.06
0.27
0.55
0.87
1.13
1.22
1.11
0.80
0.40
0.05
-0.16
-0.17
-0.02
0.19
0.40
0.53
0.58
0.53
0.39
0.20
-0.03
-0.23
-0.36
-0.40
-0.38
-0.35
-0.35
-0.39
-0.43
-0.40
-0.25
0.00
0.30
0.55
0.64
0.54
0.27
-0.09
-0.43
-0.68
-0.79
-0.80
-0.75
-0.65
-0.50
-0.27
0.02
0.32
0.53
0.57
0.46
0.28
0.17
0.21
0.39
0.60
0.72
0.69
0.54
0.38
0.29
0.28
0.27
0.18
-0.05
-0.34
-0.58
-0.68
-0.58
-0.37
-0.11
0.10
0.25
0.38
0.49
0.57
0.56
0.41
0.08
-0.38
-0.87
-1.30
-1.58
-1.67
-1.57
-1.29
-0.88
-0.42
0.01
0.32
0.49
0.54
0.52
0.50
0.53
0.60
0.67
0.67
0.58
0.41
0.20
0.01
-0.10
-0.12
-0.05
0.09
0.27
0.50
0.72
0.90
0.97
0.89
0.66
0.36
0.09
-0.07
-0.07
0.05
0.22
0.36
0.42
0.33
0.11
-0.19
-0.47
-0.60
-0.50
-0.17
0.22
0.49
0.44
0.04
-0.60
-1.22
-1.58
-1.56
-1.21
-0.68
-0.19
0.12
0.22
0.16
0.07
0.00
0.01
0.07
0.14
0.17
0.15
0.09
0.03
-0.03
-0.05
-0.05
-0.05
-0.10
-0.24
-0.43
-0.61
-0.65
-0.47
-0.08
0.42
0.83
1.01
0.87
0.47
-0.04
-0.46
-0.70
-0.71
-0.54
-0.27
-0.01
0.18
0.25
0.18
0.01
-0.23
-0.47
-0.63
-0.66
-0.53
-0.25
0.11
0.48
0.77
0.93
0.95
0.86
0.74
0.63
0.55
0.49
0.43
0.38
0.35
0.36
0.42
0.53
0.70
0.95
1.26
1.60
1.88
2.00
1.90
1.62
1.26
0.94
0.73
0.64
0.65
0.70
0.79
0.92
1.06
1.17
1.21
1.20
1.22
1.35
1.56
1.69
1.47
0.71
-0.59
-2.22
-3.84
-5.18
-6.19
-6.97
-7.66
-8.22
-8.47
-8.19
-7.40
-6.40
-5.60
-5.28
-5.30
-5.18
-4.39
-2.68
-0.28
2.19
4.09
5.07
5.21
4.87
4.46
4.13
3.83
3.40
2.77
2.02
1.40
1.08
1.13
1.44
1.78
1.91
1.71
1.21
0.61
0.15
0.04
0.35
0.97
1.66
2.14
2.26
2.02
1.61
1.28
1.25
1.59
2.18
2.78
3.08
2.88
2.15
1.05
-0.10
-0.98
-1.39
-1.33
-0.99
-0.61
-0.41
-0.42
-0.55
-0.67
-0.71
-0.70
-0.74
-0.89
-1.14
-1.38
-1.49
-1.41
-1.22
-1.04
-0.99
-1.08
-1.21
-1.25
-1.12
-0.82
-0.42
-0.02
0.27
0.39
0.32
0.08
-0.28
-0.63
-0.85
-0.83
-0.54
-0.05
0.47
0.89
1.11
1.10
0.90
0.54
0.12
-0.26
-0.46
-0.40
-0.07
0.42
0.90
1.21
1.30
1.23
1.08
0.94
0.79
0.61
0.36
0.09
-0.12
-0.19
-0.14
-0.02
0.08
0.12
0.13
0.17
0.26
0.41
0.56
0.68
0.72
0.67
0.52
0.28
-0.04
-0.42
-0.83
-1.19
-1.45
-1.55
-1.46
-1.20
-0.83
-0.46
-0.21
-0.14
-0.27
-0.48
-0.65
-0.64
-0.37
0.08
0.59
0.98
1.14
1.07
0.84
0.56
0.33
0.17
0.04
-0.10
-0.25
-0.39
-0.45
-0.38
-0.18
0.06
0.24
0.27
0.12
-0.11
-0.32
-0.40
-0.32
-0.16
-0.07
-0.13
-0.39
-0.74
-1.02
-1.09
-0.89
-0.46
0.07
0.53
0.80
0.80
0.54
0.12
-0.31
-0.61
-0.69
-0.57
-0.32
-0.06
0.14
0.27
0.41
0.62
0.90
1.20
1.40
1.38
1.15
0.78
0.40
0.14
0.07
0.12
0.21
0.24
0.17
0.02
-0.13
-0.22
-0.23
-0.19
-0.17
-0.20
-0.30
-0.43
-0.54
-0.58
-0.52
-0.38
-0.20
-0.03
0.09
0.12
0.10
0.05
-0.00
-0.03
-0.04
-0.05
-0.09
-0.18
-0.30
-0.45
-0.57
-0.62
-0.58
-0.48
-0.41
-0.45
-0.61
-0.85
-1.07
-1.15
-1.06
-0.87
-0.68
-0.58
-0.54
-0.48
-0.26
0.16
